19.899845050 2220.0
20.033535142 2158.0
20.167225234 2066.0
20.300915326 2055.0
20.434605418 2023.0
20.568295510 1950.0
20.701985603 1981.0
20.835675695 1974.0
20.969365787 2028.0
21.103055879 1927.0
21.236745971 1961.0
21.370436063 1941.0
21.504126155 2010.0
21.637816247 1958.0
21.771506339 1905.0
21.905196431 2028.0
22.038886524 1874.0
22.172576616 1905.0
22.306266708 1920.0
22.439956800 1989.0
22.573646892 1901.0
22.707336984 1856.0
22.841027076 1911.0
22.974717168 2024.0
23.108407260 1964.0
23.242097352 1976.0
23.375787445 1969.0
23.509477537 2031.0
23.643167629 2093.0
23.776857721 2082.0
23.910547813 2085.0
24.044237905 2142.0
24.177927997 1934.0
24.311618089 1969.0
24.445308181 1966.0
24.578998273 1861.0
24.712688366 1978.0
24.846378458 1857.0
24.980068550 1980.0
25.113758642 2020.0
25.247448734 2259.0
25.381138826 2827.0
25.514828918 2761.0
25.648519010 2108.0
25.782209102 1963.0
25.915899194 1848.0
26.049589287 1895.0
26.183279379 1825.0
26.316969471 1939.0
26.450659563 1864.0
26.584349655 1888.0
26.718039747 1885.0
26.851729839 1864.0
26.985419931 1941.0
27.119110023 1937.0
27.252800115 1882.0
27.386490208 1860.0
27.520180300 1909.0
27.653870392 1900.0
27.787560484 1886.0
27.921250576 1805.0
28.054940668 1881.0
28.188630760 1920.0
28.322320852 1897.0
28.456010944 1857.0
28.589701036 1816.0
28.723391129 1859.0
28.857081221 1869.0
28.990771313 1911.0
29.124461405 1901.0
29.258151497 1989.0
29.391841589 2389.0
29.525531681 2330.0
29.659221773 1949.0
29.792911865 1937.0
29.926601957 1870.0
30.060292050 1872.0
30.193982142 1881.0
30.327672234 1859.0
30.461362326 1821.0
30.595052418 1958.0
30.728742510 1898.0
30.862432602 1950.0
30.996122694 2009.0
31.129812786 2177.0
31.263502878 2199.0
31.397192971 2580.0
31.530883063 2903.0
31.664573155 3382.0
31.798263247 3845.0
31.931953339 4309.0
32.065643431 4474.0
32.199333523 4380.0
32.333023615 4516.0
32.466713707 4622.0
32.600403799 3864.0
32.734093891 2922.0
32.867783984 2424.0
33.001474076 2309.0
33.135164168 2161.0
33.268854260 2148.0
33.402544352 2170.0
33.536234444 2214.0
33.669924536 2373.0
33.803614628 2712.0
33.937304720 3097.0
34.070994812 4001.0
34.204684905 4569.0
34.338374997 4219.0
34.472065089 3388.0
34.605755181 3246.0
34.739445273 3564.0
34.873135365 4401.0
35.006825457 6278.0
35.140515549 7631.0
35.274205641 6530.0
35.407895733 4605.0
35.541585826 3839.0
35.675275918 3869.0
35.808966010 4125.0
35.942656102 4118.0
36.076346194 3909.0
36.210036286 4273.0
36.343726378 5018.0
36.477416470 6506.0
36.611106562 7321.0
36.744796654 5369.0
36.878486747 3932.0
37.012176839 3226.0
37.145866931 2772.0
37.279557023 2576.0
37.413247115 2480.0
37.546937207 2334.0
37.680627299 2196.0
37.814317391 2277.0
37.948007483 2292.0
38.081697575 2246.0
38.215387668 2425.0
38.349077760 2573.0
38.482767852 2847.0
38.616457944 3111.0
38.750148036 3171.0
38.883838128 3235.0
39.017528220 3140.0
39.151218312 3010.0
39.284908404 3016.0
39.418598496 2686.0
39.552288589 2919.0
39.685978681 3262.0
39.819668773 3506.0
39.953358865 3651.0
40.087048957 3094.0
40.220739049 3110.0
40.354429141 3132.0
40.488119233 2877.0
40.621809325 2828.0
40.755499417 3035.0
40.889189510 3358.0
41.022879602 3827.0
41.156569694 4246.0
41.290259786 4431.0
41.423949878 4470.0
41.557639970 5083.0
41.691330062 5740.0
41.825020154 5832.0
41.958710246 5040.0
42.092400338 3916.0
42.226090431 3463.0
42.359780523 3536.0
42.493470615 3783.0
42.627160707 3914.0
42.760850799 4425.0
42.894540891 4899.0
43.028230983 5561.0
43.161921075 6068.0
43.295611167 6648.0
43.429301259 7065.0
43.562991352 6735.0
43.696681444 6250.0
43.830371536 5198.0
43.964061628 4169.0
44.097751720 3572.0
44.231441812 3141.0
44.365131904 2806.0
44.498821996 2658.0
44.632512088 2469.0
44.766202180 2237.0
44.899892272 2250.0
45.033582365 2227.0
45.167272457 2280.0
45.300962549 2274.0
45.434652641 2394.0
45.568342733 2647.0
45.702032825 2643.0
45.835722917 2574.0
45.969413009 2481.0
46.103103101 2372.0
46.236793193 2230.0
46.370483286 2189.0
46.504173378 2152.0
46.637863470 2105.0
46.771553562 2123.0
46.905243654 2191.0
47.038933746 2172.0
47.172623838 2176.0
47.306313930 2257.0
47.440004022 2354.0
47.573694114 2301.0
47.707384207 2522.0
47.841074299 2669.0
47.974764391 2762.0
48.108454483 2509.0
48.242144575 2059.0
48.375834667 2055.0
48.509524759 2039.0
48.643214851 1997.0
48.776904943 2008.0
48.910595035 1957.0
49.044285128 1943.0
49.177975220 2002.0
49.311665312 1995.0
49.445355404 1950.0
49.579045496 1892.0
49.712735588 1954.0
49.846425680 1987.0
49.980115772 2023.0
50.113805864 1978.0
50.247495956 2031.0
50.381186049 1917.0
50.514876141 2016.0
50.648566233 2017.0
50.782256325 1979.0
50.915946417 2079.0
51.049636509 2212.0
51.183326601 2230.0
51.317016693 2226.0
51.450706785 2455.0
51.584396877 2737.0
51.718086970 3417.0
51.851777062 4680.0
51.985467154 6269.0
52.119157246 6201.0
52.252847338 5344.0
52.386537430 3571.0
52.520227522 2618.0
52.653917614 2397.0
52.787607706 2301.0
52.921297798 2207.0
53.054987891 2074.0
53.188677983 2134.0
53.322368075 2123.0
53.456058167 2067.0
53.589748259 2096.0
53.723438351 2120.0
53.857128443 2011.0
53.990818535 2109.0
54.124508627 1970.0
54.258198719 2059.0
54.391888812 2131.0
54.525578904 2185.0
54.659268996 2306.0
54.792959088 2351.0
54.926649180 2484.0
55.060339272 2420.0
55.194029364 2330.0
55.327719456 2275.0
55.461409548 2312.0
55.595099640 2338.0
55.728789733 2541.0
55.862479825 2529.0
55.996169917 2544.0
56.129860009 2554.0
56.263550101 2752.0
56.397240193 2770.0
56.530930285 3006.0
56.664620377 3289.0
56.798310469 3224.0
56.932000561 3003.0
57.065690654 2659.0
57.199380746 2709.0
57.333070838 2518.0
57.466760930 2569.0
57.600451022 2627.0
57.734141114 2525.0
57.867831206 2637.0
58.001521298 2588.0
58.135211390 2630.0
58.268901482 2639.0
58.402591574 2702.0
58.536281667 2679.0
58.669971759 2758.0
58.803661851 2813.0
58.937351943 2778.0
59.071042035 2768.0
59.204732127 2718.0
59.338422219 2800.0
59.472112311 2735.0
59.605802403 2737.0
59.739492495 2800.0
59.873182588 2952.0
60.006872680 2950.0
60.140562772 3147.0
60.274252864 3108.0
60.407942956 3210.0
60.541633048 3344.0
60.675323140 3429.0
60.809013232 3600.0
60.942703324 3650.0
61.076393416 3840.0
61.210083509 4104.0
61.343773601 4189.0
61.477463693 4283.0
61.611153785 4324.0
61.744843877 4091.0
61.878533969 3898.0
62.012224061 3884.0
62.145914153 3828.0
62.279604245 3894.0
62.413294337 3987.0
62.546984430 4010.0
62.680674522 3999.0
62.814364614 4116.0
62.948054706 4245.0
63.081744798 4542.0
63.215434890 4803.0
63.349124982 5120.0
63.482815074 5477.0
63.616505166 5802.0
63.750195258 5967.0
63.883885351 5989.0
64.017575443 5483.0
64.151265535 5075.0
64.284955627 4908.0
64.418645719 4651.0
64.552335811 4337.0
64.686025903 4372.0
64.819715995 4354.0
64.953406087 4432.0
65.087096179 4524.0
65.220786272 4665.0
65.354476364 4449.0
65.488166456 4246.0
65.621856548 4348.0
65.755546640 4426.0
65.889236732 4662.0
66.022926824 4853.0
66.156616916 5263.0
66.290307008 5712.0
66.423997100 6161.0
66.557687193 6845.0
66.691377285 7717.0
66.825067377 7695.0
66.958757469 6500.0
67.092447561 5647.0
67.226137653 5166.0
67.359827745 5072.0
67.493517837 4875.0
67.627207929 4956.0
67.760898021 4791.0
67.894588114 4881.0
68.028278206 4875.0
68.161968298 4998.0
68.295658390 5173.0
68.429348482 5206.0
68.563038574 5186.0
68.696728666 5015.0
68.830418758 4851.0
68.964108850 5008.0
69.097798942 4864.0
69.231489035 4996.0
69.365179127 4955.0
69.498869219 4929.0
69.632559311 5205.0
69.766249403 5275.0
69.899939495 5264.0
70.033629587 5334.0
70.167319679 5511.0
70.301009771 5323.0
70.434699863 5142.0
70.568389955 5172.0
70.702080048 5073.0
70.835770140 5028.0
70.969460232 5018.0
71.103150324 4922.0
71.236840416 4961.0
71.370530508 5168.0
71.504220600 5343.0
71.637910692 5366.0
71.771600784 5211.0
71.905290876 5559.0
72.038980969 5372.0
72.172671061 5329.0
72.306361153 5183.0
72.440051245 5096.0
72.573741337 4932.0
72.707431429 5025.0
72.841121521 5076.0
72.974811613 5345.0
73.108501705 5294.0
73.242191797 5544.0
73.375881890 5641.0
73.509571982 5803.0
73.643262074 5927.0
73.776952166 5946.0
73.910642258 5954.0
74.044332350 6114.0
74.178022442 5752.0
74.311712534 5450.0
74.445402626 5303.0
74.579092718 5292.0
74.712782811 5080.0
74.846472903 5285.0
74.980162995 5427.0
75.113853087 5435.0
75.247543179 5463.0
75.381233271 5601.0
75.514923363 5607.0
75.648613455 5934.0
75.782303547 5927.0
75.915993639 6106.0
76.049683732 6154.0
76.183373824 6263.0
76.317063916 6288.0
76.450754008 6763.0
76.584444100 7081.0
76.718134192 7201.0
76.851824284 7397.0
76.985514376 7671.0
77.119204468 7518.0
77.252894560 7206.0
77.386584653 6972.0
77.520274745 6865.0
77.653964837 6747.0
77.787654929 6518.0
77.921345021 6421.0
78.055035113 5907.0
78.188725205 5741.0
78.322415297 5726.0
78.456105389 5686.0
78.589795481 5757.0
78.723485574 5574.0
78.857175666 5553.0
78.990865758 5511.0
79.124555850 5551.0
79.258245942 5663.0
79.391936034 5680.0
79.525626126 5851.0
79.659316218 5922.0
79.793006310 6052.0
79.926696402 6119.0
80.060386495 6036.0
80.194076587 5916.0
80.327766679 6091.0
80.461456771 5840.0
80.595146863 5918.0
80.728836955 5959.0
80.862527047 5989.0
80.996217139 6088.0
81.129907231 5912.0
81.263597323 6098.0
81.397287416 6020.0
81.530977508 6045.0
81.664667600 6093.0
81.798357692 6281.0
81.932047784 6610.0
82.065737876 6505.0
82.199427968 6779.0
82.333118060 6752.0
82.466808152 6730.0
82.600498244 6504.0
82.734188336 6296.0
82.867878429 6182.0
83.001568521 6029.0
83.135258613 6271.0
83.268948705 6254.0
83.402638797 6205.0
83.536328889 5986.0
83.670018981 6042.0
83.803709073 6102.0
83.937399165 6315.0
84.071089257 6137.0
84.204779350 6298.0
84.338469442 6226.0
84.472159534 6202.0
84.605849626 6432.0
84.739539718 6283.0
84.873229810 6191.0
85.006919902 6343.0
85.140609994 6227.0
85.274300086 6137.0
85.407990178 6331.0
85.541680271 6517.0
85.675370363 6499.0
85.809060455 6651.0
85.942750547 6641.0
86.076440639 6891.0
86.210130731 6997.0
86.343820823 7337.0
86.477510915 7428.0
86.611201007 8026.0
86.744891099 8674.0
86.878581192 9460.0
87.012271284 12007.0
87.145961376 10996.0
87.279651468 9605.0
87.413341560 8539.0
87.547031652 7216.0
87.680721744 6685.0
87.814411836 6554.0
87.948101928 6502.0
88.081792020 6489.0
88.215482113 6521.0
88.349172205 6500.0
88.482862297 6638.0
88.616552389 6626.0
88.750242481 6572.0
88.883932573 6556.0
89.017622665 6715.0
89.151312757 7011.0
89.285002849 7061.0
89.418692941 7080.0
89.552383034 7075.0
89.686073126 7078.0
89.819763218 6910.0
89.953453310 6996.0
90.087143402 6768.0
90.220833494 7028.0
90.354523586 7042.0
90.488213678 7083.0
90.621903770 7436.0
90.755593862 7432.0
90.889283955 7365.0
91.022974047 7399.0
91.156664139 7146.0
91.290354231 7103.0
91.424044323 7400.0
91.557734415 7097.0
91.691424507 7214.0
91.825114599 7131.0
91.958804691 7238.0
92.092494783 7205.0
92.226184876 7198.0
92.359874968 7201.0
92.493565060 7054.0
92.627255152 7251.0
92.760945244 7158.0
92.894635336 7000.0
93.028325428 7103.0
93.162015520 7163.0
93.295705612 7393.0
93.429395704 7526.0
93.563085797 7802.0
93.696775889 7881.0
93.830465981 7501.0
93.964156073 7588.0
94.097846165 7329.0
94.231536257 7416.0
94.365226349 7317.0
94.498916441 7597.0
94.632606533 7359.0
94.766296625 7232.0
94.899986717 7123.0
95.033676810 7123.0
95.167366902 7169.0
95.301056994 7186.0
95.434747086 7282.0
95.568437178 7224.0
95.702127270 7505.0
95.835817362 7390.0
95.969507454 7393.0
96.103197546 7379.0
96.236887638 7269.0
96.370577731 7282.0
96.504267823 7337.0
96.637957915 7428.0
96.771648007 7419.0
96.905338099 7359.0
97.039028191 7606.0
97.172718283 7488.0
97.306408375 7470.0
97.440098467 7447.0
97.573788559 7369.0
97.707478652 7542.0
97.841168744 7560.0
97.974858836 7525.0
98.108548928 7602.0
98.242239020 7572.0
98.375929112 7806.0
98.509619204 7847.0
98.643309296 7957.0
98.776999388 8123.0
98.910689480 7958.0
99.044379573 7970.0
99.178069665 8087.0
99.311759757 7950.0
99.445449849 7973.0
99.579139941 8216.0
99.712830033 8152.0
99.846520125 7990.0
99.980210217 7886.0
100.113900309 7876.0
100.247590401 7977.0
100.381280494 7933.0
100.514970586 7947.0
100.648660678 8042.0
100.782350770 7891.0
100.916040862 7861.0
101.049730954 7947.0
101.183421046 7990.0
101.317111138 7883.0
101.450801230 7953.0
101.584491322 8114.0
101.718181415 8173.0
101.851871507 8257.0
101.985561599 8490.0
102.119251691 8435.0
102.252941783 8805.0
102.386631875 9045.0
102.520321967 9876.0
102.654012059 10778.0
102.787702151 10165.0
102.921392243 9861.0
103.055082336 9794.0
103.188772428 9520.0
103.322462520 9329.0
103.456152612 9292.0
103.589842704 9338.0
103.723532796 9084.0
103.857222888 9006.0
103.990912980 8996.0
104.124603072 8900.0
104.258293164 8858.0
104.391983257 8977.0
104.525673349 8832.0
104.659363441 8785.0
104.793053533 8714.0
104.926743625 8601.0
105.060433717 8541.0
105.194123809 8617.0
105.327813901 8720.0
105.461503993 8671.0
105.595194085 8864.0
105.728884178 8905.0
105.862574270 8685.0
105.996264362 8797.0
106.129954454 8686.0
106.263644546 8631.0
106.397334638 8753.0
106.531024730 8770.0
106.664714822 8809.0
106.798404914 8783.0
106.932095006 8941.0
107.065785099 8901.0
107.199475191 8993.0
107.333165283 8789.0
107.466855375 8908.0
107.600545467 8712.0
107.734235559 8626.0
107.867925651 8653.0
108.001615743 8855.0
108.135305835 8597.0
108.268995927 8703.0
108.402686019 8739.0
108.536376112 8643.0
108.670066204 8659.0
108.803756296 9040.0
108.937446388 8887.0
109.071136480 9030.0
109.204826572 9151.0
109.338516664 8930.0
109.472206756 8961.0
109.605896848 9084.0
109.739586940 9220.0
109.873277033 9175.0
110.006967125 9190.0
110.140657217 9417.0
110.274347309 9371.0
110.408037401 9151.0
110.541727493 9375.0
110.675417585 9618.0
110.809107677 9572.0
110.942797769 9598.0
111.076487861 9624.0
111.210177954 9407.0
111.343868046 9548.0
111.477558138 9428.0
111.611248230 9450.0
111.744938322 9448.0
111.878628414 9284.0
112.012318506 9447.0
112.146008598 9385.0
112.279698690 9723.0
112.413388782 9870.0
112.547078875 10006.0
112.680768967 9904.0
112.814459059 10187.0
112.948149151 9967.0
113.081839243 9991.0
113.215529335 10042.0
113.349219427 10010.0
113.482909519 10245.0
113.616599611 10881.0
113.750289703 11066.0
113.883979796 11584.0
114.017669888 11529.0
114.151359980 11045.0
114.285050072 11061.0
114.418740164 10758.0
114.552430256 10571.0
114.686120348 10191.0
114.819810440 10203.0
114.953500532 10103.0
115.087190624 9924.0
115.220880717 10206.0
115.354570809 9909.0
115.488260901 9896.0
115.621950993 9834.0
115.755641085 9684.0
115.889331177 9801.0
116.023021269 9805.0
116.156711361 9762.0
116.290401453 9842.0
116.424091545 9835.0
116.557781638 9727.0
116.691471730 9969.0
116.825161822 10079.0
116.958851914 10059.0
117.092542006 9992.0
117.226232098 9948.0
117.359922190 10264.0
117.493612282 10266.0
117.627302374 10347.0
117.760992466 10326.0
117.894682559 10719.0
118.028372651 10680.0
118.162062743 10605.0
118.295752835 10810.0
118.429442927 10817.0
118.563133019 10748.0
118.696823111 10646.0
118.830513203 10984.0
118.964203295 10763.0
119.097893387 10519.0
119.231583480 10712.0
119.365273572 10698.0
119.498963664 10793.0
119.632653756 10798.0
119.766343848 10771.0
119.900033940 10722.0
