20.075200670 589.0
20.225602005 603.0
20.376003341 609.0
20.526404676 582.0
20.676806012 643.0
20.827207347 633.0
20.977608683 592.0
21.128010018 596.0
21.278411354 554.0
21.428812689 587.0
21.579214025 522.0
21.729615360 558.0
21.880016696 624.0
22.030418031 614.0
22.180819367 599.0
22.331220702 626.0
22.481622038 646.0
22.632023373 622.0
22.782424709 517.0
22.932826044 564.0
23.083227380 599.0
23.233628715 594.0
23.384030051 570.0
23.534431386 550.0
23.684832722 615.0
23.835234057 542.0
23.985635393 512.0
24.136036728 539.0
24.286438064 538.0
24.436839399 506.0
24.587240735 553.0
24.737642070 547.0
24.888043406 517.0
25.038444741 495.0
25.188846077 553.0
25.339247412 547.0
25.489648748 554.0
25.640050083 619.0
25.790451419 639.0
25.940852754 804.0
26.091254090 668.0
26.241655425 620.0
26.392056761 600.0
26.542458096 665.0
26.692859432 654.0
26.843260767 577.0
26.993662103 535.0
27.144063438 543.0
27.294464774 529.0
27.444866109 544.0
27.595267445 497.0
27.745668780 500.0
27.896070116 474.0
28.046471451 519.0
28.196872787 525.0
28.347274122 475.0
28.497675458 491.0
28.648076793 522.0
28.798478129 485.0
28.948879464 518.0
29.099280800 603.0
29.249682135 525.0
29.400083471 490.0
29.550484806 564.0
29.700886142 609.0
29.851287477 624.0
30.001688813 571.0
30.152090148 550.0
30.302491484 550.0
30.452892819 585.0
30.603294155 559.0
30.753695490 576.0
30.904096826 524.0
31.054498161 525.0
31.204899497 535.0
31.355300832 620.0
31.505702168 605.0
31.656103503 845.0
31.806504839 1366.0
31.956906174 1745.0
32.107307510 1150.0
32.257708845 828.0
32.408110181 726.0
32.558511516 673.0
32.708912852 615.0
32.859314187 602.0
33.009715523 552.0
33.160116858 565.0
33.310518194 545.0
33.460919529 563.0
33.611320865 585.0
33.761722200 536.0
33.912123536 586.0
34.062524871 692.0
34.212926207 981.0
34.363327542 1654.0
34.513728878 2375.0
34.664130213 1931.0
34.814531549 1033.0
34.964932884 799.0
35.115334220 699.0
35.265735555 632.0
35.416136891 601.0
35.566538226 616.0
35.716939562 599.0
35.867340897 564.0
36.017742233 547.0
36.168143568 584.0
36.318544904 589.0
36.468946239 616.0
36.619347575 763.0
36.769748910 941.0
36.920150246 947.0
37.070551581 834.0
37.220952917 773.0
37.371354252 830.0
37.521755588 941.0
37.672156923 1125.0
37.822558259 1528.0
37.972959594 2089.0
38.123360930 2531.0
38.273762265 2043.0
38.424163601 1559.0
38.574564936 1368.0
38.724966272 1496.0
38.875367607 1983.0
39.025768943 2967.0
39.176170278 3008.0
39.326571614 1848.0
39.476972949 1299.0
39.627374285 1164.0
39.777775620 1100.0
39.928176956 1140.0
40.078578291 1196.0
40.228979627 1192.0
40.379380962 1349.0
40.529782298 1423.0
40.680183633 1307.0
40.830584969 1480.0
40.980986304 2049.0
41.131387640 2843.0
41.281788975 4712.0
41.432190311 7833.0
41.582591646 7968.0
41.732992982 6279.0
41.883394317 5733.0
42.033795653 3452.0
42.184196988 2084.0
42.334598324 1571.0
42.484999659 1427.0
42.635400995 1376.0
42.785802330 1127.0
42.936203666 1036.0
43.086605001 886.0
43.237006337 862.0
43.387407672 821.0
43.537809008 776.0
43.688210343 783.0
43.838611679 762.0
43.989013014 704.0
44.139414350 692.0
44.289815685 729.0
44.440217021 795.0
44.590618356 902.0
44.741019692 1125.0
44.891421027 1268.0
45.041822363 1235.0
45.192223698 1612.0
45.342625034 2660.0
45.493026369 3895.0
45.643427705 3972.0
45.793829040 2803.0
45.944230376 1582.0
46.094631711 1139.0
46.245033047 988.0
46.395434382 965.0
46.545835718 955.0
46.696237053 931.0
46.846638389 959.0
46.997039724 1014.0
47.147441060 1160.0
47.297842395 1451.0
47.448243731 1557.0
47.598645066 1331.0
47.749046402 968.0
47.899447737 735.0
48.049849073 688.0
48.200250408 661.0
48.350651744 601.0
48.501053079 548.0
48.651454415 559.0
48.801855750 558.0
48.952257086 546.0
49.102658421 590.0
49.253059757 543.0
49.403461092 528.0
49.553862428 534.0
49.704263763 498.0
49.854665099 518.0
50.005066434 518.0
50.155467770 516.0
50.305869105 554.0
50.456270441 539.0
50.606671776 554.0
50.757073112 625.0
50.907474447 666.0
51.057875783 729.0
51.208277118 787.0
51.358678454 884.0
51.509079789 772.0
51.659481125 656.0
51.809882460 639.0
51.960283796 605.0
52.110685131 581.0
52.261086467 582.0
52.411487802 670.0
52.561889138 728.0
52.712290473 864.0
52.862691809 1038.0
53.013093144 1228.0
53.163494480 1258.0
53.313895815 971.0
53.464297151 785.0
53.614698486 669.0
53.765099822 669.0
53.915501157 613.0
54.065902493 591.0
54.216303828 586.0
54.366705164 648.0
54.517106499 655.0
54.667507835 797.0
54.817909170 733.0
54.968310506 602.0
55.118711841 565.0
55.269113177 512.0
55.419514512 551.0
55.569915848 556.0
55.720317183 555.0
55.870718519 593.0
56.021119854 674.0
56.171521190 786.0
56.321922525 843.0
56.472323861 708.0
56.622725196 626.0
56.773126532 617.0
56.923527867 681.0
57.073929203 635.0
57.224330538 585.0
57.374731874 632.0
57.525133209 589.0
57.675534545 700.0
57.825935880 610.0
57.976337216 651.0
58.126738551 695.0
58.277139887 762.0
58.427541222 768.0
58.577942558 672.0
58.728343893 727.0
58.878745229 640.0
59.029146564 682.0
59.179547900 669.0
59.329949235 760.0
59.480350571 718.0
59.630751906 786.0
59.781153242 738.0
59.931554577 679.0
60.081955913 740.0
60.232357248 814.0
60.382758584 794.0
60.533159919 815.0
60.683561255 873.0
60.833962590 932.0
60.984363926 1050.0
61.134765261 1238.0
61.285166597 1448.0
61.435567932 1932.0
61.585969268 2386.0
61.736370603 2165.0
61.886771939 1641.0
62.037173274 1241.0
62.187574610 1138.0
62.337975945 1086.0
62.488377281 1054.0
62.638778616 1082.0
62.789179952 1173.0
62.939581287 1115.0
63.089982623 1277.0
63.240383958 1148.0
63.390785294 1091.0
63.541186629 1042.0
63.691587965 1079.0
63.841989300 1036.0
63.992390636 1080.0
64.142791971 1116.0
64.293193307 1152.0
64.443594642 1183.0
64.593995978 1147.0
64.744397313 1094.0
64.894798649 1196.0
65.045199984 1188.0
65.195601320 1173.0
65.346002655 1258.0
65.496403991 1417.0
65.646805326 1517.0
65.797206662 1658.0
65.947607997 2054.0
66.098009333 2451.0
66.248410668 2885.0
66.398812004 3189.0
66.549213339 2931.0
66.699614675 2195.0
66.850016010 1668.0
67.000417346 1444.0
67.150818681 1391.0
67.301220017 1340.0
67.451621352 1306.0
67.602022688 1266.0
67.752424023 1292.0
67.902825359 1274.0
68.053226694 1243.0
68.203628030 1182.0
68.354029365 1194.0
68.504430701 1252.0
68.654832036 1195.0
68.805233372 1266.0
68.955634707 1305.0
69.106036043 1241.0
69.256437378 1251.0
69.406838714 1193.0
69.557240049 1216.0
69.707641385 1383.0
69.858042720 1235.0
70.008444055 1288.0
70.158845391 1337.0
70.309246726 1391.0
70.459648062 1427.0
70.610049397 1332.0
70.760450733 1392.0
70.910852068 1402.0
71.061253404 1437.0
71.211654739 1518.0
71.362056075 1562.0
71.512457410 1724.0
71.662858746 1811.0
71.813260081 1922.0
71.963661417 2188.0
72.114062752 2525.0
72.264464088 3086.0
72.414865423 3586.0
72.565266759 3505.0
72.715668094 2846.0
72.866069430 2199.0
73.016470765 1878.0
73.166872101 1679.0
73.317273436 1575.0
73.467674772 1449.0
73.618076107 1572.0
73.768477443 1517.0
73.918878778 1437.0
74.069280114 1445.0
74.219681449 1464.0
74.370082785 1513.0
74.520484120 1451.0
74.670885456 1520.0
74.821286791 1548.0
74.971688127 1525.0
75.122089462 1689.0
75.272490798 1679.0
75.422892133 1775.0
75.573293469 2034.0
75.723694804 1834.0
75.874096140 1777.0
76.024497475 1822.0
76.174898811 1927.0
76.325300146 2080.0
76.475701482 2342.0
76.626102817 2612.0
76.776504153 3075.0
76.926905488 3286.0
77.077306824 2881.0
77.227708159 2433.0
77.378109495 2099.0
77.528510830 1989.0
77.678912166 1881.0
77.829313501 1925.0
77.979714837 1929.0
78.130116172 1969.0
78.280517508 2023.0
78.430918843 1972.0
78.581320179 2072.0
78.731721514 2417.0
78.882122850 2773.0
79.032524185 2938.0
79.182925521 2969.0
79.333326856 3393.0
79.483728192 4193.0
79.634129527 4265.0
79.784530863 4044.0
79.934932198 3421.0
80.085333534 2945.0
80.235734869 2570.0
80.386136205 2524.0
80.536537540 2603.0
80.686938876 2936.0
80.837340211 3316.0
80.987741547 3690.0
81.138142882 4511.0
81.288544218 4814.0
81.438945553 4689.0
81.589346889 3921.0
81.739748224 3058.0
81.890149560 2524.0
82.040550895 2338.0
82.190952231 2125.0
82.341353566 2201.0
82.491754902 2046.0
82.642156237 1910.0
82.792557573 2009.0
82.942958908 2050.0
83.093360244 2000.0
83.243761579 2130.0
83.394162915 2049.0
83.544564250 2100.0
83.694965586 2064.0
83.845366921 2109.0
83.995768257 1997.0
84.146169592 1926.0
84.296570928 2022.0
84.446972263 1970.0
84.597373599 2189.0
84.747774934 2143.0
84.898176270 2095.0
85.048577605 2029.0
85.198978941 2148.0
85.349380276 2217.0
85.499781612 2109.0
85.650182947 2022.0
85.800584283 1906.0
85.950985618 1889.0
86.101386954 1821.0
86.251788289 1818.0
86.402189625 1754.0
86.552590960 1747.0
86.702992296 1695.0
86.853393631 1803.0
87.003794967 1712.0
87.154196302 1836.0
87.304597638 1902.0
87.454998973 1813.0
87.605400309 1846.0
87.755801644 1873.0
87.906202980 2013.0
88.056604315 1944.0
88.207005651 1988.0
88.357406986 2070.0
88.507808322 2096.0
88.658209657 2080.0
88.808610993 2047.0
88.959012328 2018.0
89.109413664 1956.0
89.259814999 1990.0
89.410216335 2089.0
89.560617670 2183.0
89.711019006 2322.0
89.861420341 2416.0
90.011821677 2401.0
90.162223012 2318.0
90.312624348 2189.0
90.463025683 2162.0
90.613427019 2070.0
90.763828354 2049.0
90.914229690 1951.0
91.064631025 2009.0
91.215032361 1899.0
91.365433696 1942.0
91.515835032 1958.0
91.666236367 1933.0
91.816637703 1998.0
91.967039038 1919.0
92.117440374 1993.0
92.267841709 1977.0
92.418243045 1973.0
92.568644380 1974.0
92.719045716 1901.0
92.869447051 1994.0
93.019848387 2068.0
93.170249722 1986.0
93.320651058 1935.0
93.471052393 2051.0
93.621453729 1921.0
93.771855064 2066.0
93.922256400 2109.0
94.072657735 2081.0
94.223059071 2137.0
94.373460406 2121.0
94.523861742 2111.0
94.674263077 2124.0
94.824664413 2160.0
94.975065748 2080.0
95.125467084 2159.0
95.275868419 2158.0
95.426269755 2093.0
95.576671090 2103.0
95.727072426 1954.0
95.877473761 2070.0
96.027875097 2015.0
96.178276432 2123.0
96.328677768 2138.0
96.479079103 2200.0
96.629480439 2292.0
96.779881774 2206.0
96.930283110 2212.0
97.080684445 2238.0
97.231085781 2149.0
97.381487116 2271.0
97.531888452 2326.0
97.682289787 2339.0
97.832691123 2405.0
97.983092458 2293.0
98.133493794 2306.0
98.283895129 2354.0
98.434296465 2356.0
98.584697800 2385.0
98.735099136 2334.0
98.885500471 2431.0
99.035901807 2427.0
99.186303142 2411.0
99.336704478 2520.0
99.487105813 2377.0
99.637507149 2416.0
99.787908484 2398.0
99.938309820 2409.0
100.088711155 2429.0
100.239112491 2504.0
100.389513826 2427.0
100.539915162 2430.0
100.690316497 2578.0
100.840717833 2677.0
100.991119168 2817.0
101.141520504 2745.0
101.291921839 2805.0
101.442323175 2971.0
101.592724510 2955.0
101.743125846 2796.0
101.893527181 2573.0
102.043928517 2618.0
102.194329852 2583.0
102.344731188 2538.0
102.495132523 2544.0
102.645533859 2762.0
102.795935194 2859.0
102.946336530 2697.0
103.096737865 2613.0
103.247139201 2675.0
103.397540536 2582.0
103.547941872 2454.0
103.698343207 2534.0
103.848744543 2473.0
103.999145878 2494.0
104.149547214 2585.0
104.299948549 2525.0
104.450349885 2537.0
104.600751220 2591.0
104.751152556 2576.0
104.901553891 2535.0
105.051955227 2622.0
105.202356562 2590.0
105.352757898 2587.0
105.503159233 2623.0
105.653560569 2777.0
105.803961904 2706.0
105.954363240 2842.0
106.104764575 2784.0
106.255165911 2879.0
106.405567246 2934.0
106.555968582 3103.0
106.706369917 3175.0
106.856771253 3022.0
107.007172588 3178.0
107.157573924 3066.0
107.307975259 3190.0
107.458376595 2970.0
107.608777930 2965.0
107.759179266 2966.0
107.909580601 3104.0
108.059981937 3131.0
108.210383272 3181.0
108.360784608 3133.0
108.511185943 3148.0
108.661587279 3244.0
108.811988614 2986.0
108.962389950 3077.0
109.112791285 3052.0
109.263192621 3122.0
109.413593956 2986.0
109.563995292 2896.0
109.714396627 3071.0
109.864797963 3133.0
110.015199298 3155.0
110.165600634 3117.0
110.316001969 3185.0
110.466403305 3295.0
110.616804640 3381.0
110.767205976 3314.0
110.917607311 3466.0
111.068008647 3634.0
111.218409982 3936.0
111.368811318 4316.0
111.519212653 4862.0
111.669613989 5450.0
111.820015324 5491.0
111.970416660 5257.0
112.120817995 4973.0
112.271219331 4668.0
112.421620666 4230.0
112.572022002 3706.0
112.722423337 3624.0
112.872824673 3638.0
113.023226008 3547.0
113.173627344 3527.0
113.324028679 3622.0
113.474430015 3654.0
113.624831350 3656.0
113.775232686 3694.0
113.925634021 3746.0
114.076035357 3671.0
114.226436692 3855.0
114.376838028 3757.0
114.527239363 3839.0
114.677640699 3999.0
114.828042034 4199.0
114.978443370 4108.0
115.128844705 4034.0
115.279246041 4001.0
115.429647376 4015.0
115.580048712 4091.0
115.730450047 4252.0
115.880851383 4403.0
116.031252718 4637.0
116.181654054 4699.0
116.332055389 4822.0
116.482456725 4767.0
116.632858060 4877.0
116.783259396 4598.0
116.933660731 4474.0
117.084062067 4242.0
117.234463402 4311.0
117.384864738 4141.0
117.535266073 4154.0
117.685667409 4168.0
117.836068744 4199.0
117.986470080 4370.0
118.136871415 4352.0
118.287272751 4427.0
118.437674086 4504.0
118.588075422 4613.0
118.738476757 4657.0
118.888878093 4649.0
119.039279428 4705.0
119.189680764 4618.0
119.340082099 4572.0
119.490483435 4668.0
119.640884770 4729.0
