10.250667440 545.0
10.752002314 575.0
11.253337188 561.0
11.754672063 536.0
12.256006937 573.0
12.757341811 569.0
13.258676685 557.0
13.760011560 527.0
14.261346434 621.0
14.762681308 520.0
15.264016182 619.0
15.765351057 538.0
16.266685931 568.0
16.768020805 566.0
17.269355679 604.0
17.770690554 598.0
18.272025428 612.0
18.773360302 602.0
19.274695176 542.0
19.776030051 610.0
20.277364925 572.0
20.778699799 595.0
21.280034673 618.0
21.781369548 587.0
22.282704422 569.0
22.784039296 595.0
23.285374170 606.0
23.786709045 612.0
24.288043919 632.0
24.789378793 592.0
25.290713667 596.0
25.792048542 585.0
26.293383416 621.0
26.794718290 819.0
27.296053164 761.0
27.797388039 589.0
28.298722913 598.0
28.800057787 555.0
29.301392661 603.0
29.802727536 561.0
30.304062410 572.0
30.805397284 586.0
31.306732158 648.0
31.808067032 660.0
32.309401907 913.0
32.810736781 722.0
33.312071655 591.0
33.813406529 597.0
34.314741404 613.0
34.816076278 759.0
35.317411152 690.0
35.818746026 644.0
36.320080901 731.0
36.821415775 710.0
37.322750649 833.0
37.824085523 1032.0
38.325420398 848.0
38.826755272 2409.0
39.328090146 2167.0
39.829425020 2922.0
40.330759895 1112.0
40.832094769 849.0
41.333429643 875.0
41.834764517 1108.0
42.336099392 2851.0
42.837434266 5729.0
43.338769140 1285.0
43.840104014 937.0
44.341438889 778.0
44.842773763 759.0
45.344108637 869.0
45.845443511 991.0
46.346778386 1255.0
46.848113260 815.0
47.349448134 806.0
47.850783008 972.0
48.352117883 1653.0
48.853452757 1086.0
49.354787631 796.0
49.856122505 730.0
50.357457379 724.0
50.858792254 804.0
51.360127128 759.0
51.861462002 821.0
52.362796876 791.0
52.864131751 818.0
53.365466625 821.0
53.866801499 757.0
54.368136373 820.0
54.869471248 956.0
55.370806122 1104.0
55.872140996 1257.0
56.373475870 919.0
56.874810745 834.0
57.376145619 925.0
57.877480493 968.0
58.378815367 1012.0
58.880150242 944.0
59.381485116 975.0
59.882819990 1025.0
60.384154864 992.0
60.885489739 1121.0
61.386824613 1130.0
61.888159487 1150.0
62.389494361 1155.0
62.890829236 1320.0
63.392164110 1427.0
63.893498984 1454.0
64.394833858 1751.0
64.896168733 1320.0
65.397503607 1524.0
65.898838481 1328.0
66.400173355 1430.0
66.901508230 1874.0
67.402843104 2521.0
67.904177978 3041.0
68.405512852 1639.0
68.906847727 1628.0
69.408182601 1553.0
69.909517475 1562.0
70.410852349 1686.0
70.912187223 1547.0
71.413522098 1754.0
71.914856972 1688.0
72.416191846 1944.0
72.917526720 1908.0
73.418861595 2661.0
73.920196469 4898.0
74.421531343 2238.0
74.922866217 2101.0
75.424201092 1751.0
75.925535966 1798.0
76.426870840 1722.0
76.928205714 1747.0
77.429540589 2072.0
77.930875463 1754.0
78.432210337 1919.0
78.933545211 1862.0
79.434880086 2043.0
79.936214960 2275.0
80.437549834 2524.0
80.938884708 3689.0
81.440219583 10640.0
81.941554457 3696.0
82.442889331 2214.0
82.944224205 2336.0
83.445559080 2913.0
83.946893954 2503.0
84.448228828 2522.0
84.949563702 3254.0
85.450898577 2543.0
85.952233451 2094.0
86.453568325 2144.0
86.954903199 2150.0
87.456238074 2204.0
87.957572948 2397.0
88.458907822 2108.0
88.960242696 2309.0
89.461577571 2249.0
89.962912445 2330.0
90.464247319 2336.0
90.965582193 2143.0
91.466917067 2161.0
91.968251942 2253.0
92.469586816 2359.0
92.970921690 2451.0
93.472256564 2424.0
93.973591439 2391.0
94.474926313 2312.0
94.976261187 2437.0
95.477596061 2443.0
95.978930936 2494.0
96.480265810 2486.0
96.981600684 2533.0
97.482935558 2561.0
97.984270433 2380.0
98.485605307 2557.0
98.986940181 2431.0
99.488275055 2441.0
99.989609930 2626.0
100.490944804 2750.0
100.992279678 2715.0
101.493614552 2562.0
101.994949427 2653.0
102.496284301 2597.0
102.997619175 2708.0
103.498954049 2884.0
104.000288924 2619.0
104.501623798 2654.0
105.002958672 2685.0
105.504293546 2667.0
106.005628421 2883.0
106.506963295 2804.0
107.008298169 2918.0
107.509633043 2888.0
108.010967918 3018.0
108.512302792 3114.0
109.013637666 3101.0
109.514972540 3196.0
110.016307414 3449.0
110.517642289 3419.0
111.018977163 3221.0
111.520312037 3173.0
112.021646911 3212.0
112.522981786 3138.0
113.024316660 3148.0
113.525651534 3206.0
114.026986408 3471.0
114.528321283 3309.0
115.029656157 3226.0
115.530991031 3404.0
116.032325905 3426.0
116.533660780 3847.0
117.034995654 3725.0
117.536330528 4147.0
118.037665402 3921.0
118.539000277 3829.0
119.040335151 3862.0
119.541670025 3798.0
120.043004899 3977.0
120.544339774 4584.0
121.045674648 4824.0
121.547009522 4537.0
122.048344396 4172.0
122.549679271 4149.0
123.051014145 3716.0
123.552349019 3894.0
124.053683893 3837.0
124.555018768 3968.0
125.056353642 3851.0
125.557688516 3855.0
126.059023390 4012.0
126.560358265 3860.0
127.061693139 4027.0
127.563028013 3948.0
128.064362887 3861.0
128.565697762 4144.0
129.067032636 4525.0
129.568367510 5260.0
