20.050133790 509.0
20.150401379 519.0
20.250668968 554.0
20.350936557 539.0
20.451204146 540.0
20.551471735 545.0
20.651739324 523.0
20.752006913 545.0
20.852274502 511.0
20.952542091 538.0
21.052809680 494.0
21.153077269 523.0
21.253344858 516.0
21.353612447 534.0
21.453880036 554.0
21.554147625 531.0
21.654415214 552.0
21.754682803 533.0
21.854950392 515.0
21.955217981 517.0
22.055485570 496.0
22.155753159 503.0
22.256020748 554.0
22.356288337 506.0
22.456555926 534.0
22.556823515 535.0
22.657091104 504.0
22.757358693 532.0
22.857626282 538.0
22.957893871 588.0
23.058161460 494.0
23.158429049 510.0
23.258696638 523.0
23.358964227 528.0
23.459231816 525.0
23.559499405 528.0
23.659766994 501.0
23.760034583 499.0
23.860302172 545.0
23.960569761 544.0
24.060837350 554.0
24.161104939 506.0
24.261372528 566.0
24.361640117 537.0
24.461907706 487.0
24.562175295 513.0
24.662442884 550.0
24.762710473 502.0
24.862978062 521.0
24.963245651 565.0
25.063513240 543.0
25.163780829 490.0
25.264048418 544.0
25.364316007 528.0
25.464583596 545.0
25.564851185 558.0
25.665118774 583.0
25.765386363 523.0
25.865653952 535.0
25.965921541 538.0
26.066189130 545.0
26.166456719 508.0
26.266724308 504.0
26.366991897 551.0
26.467259486 567.0
26.567527075 604.0
26.667794664 661.0
26.768062253 644.0
26.868329842 717.0
26.968597431 812.0
27.068865020 990.0
27.169132609 1163.0
27.269400198 1282.0
27.369667787 1257.0
27.469935376 1121.0
27.570202965 1001.0
27.670470554 761.0
27.770738143 661.0
27.871005732 608.0
27.971273321 559.0
28.071540910 571.0
28.171808499 571.0
28.272076088 548.0
28.372343676 505.0
28.472611265 588.0
28.572878854 531.0
28.673146443 538.0
28.773414032 579.0
28.873681621 562.0
28.973949210 530.0
29.074216799 584.0
29.174484388 513.0
29.274751977 496.0
29.375019566 527.0
29.475287155 548.0
29.575554744 555.0
29.675822333 607.0
29.776089922 518.0
29.876357511 563.0
29.976625100 569.0
30.076892689 553.0
30.177160278 530.0
30.277427867 526.0
30.377695456 499.0
30.477963045 490.0
30.578230634 541.0
30.678498223 540.0
30.778765812 541.0
30.879033401 557.0
30.979300990 541.0
31.079568579 563.0
31.179836168 511.0
31.280103757 501.0
31.380371346 523.0
31.480638935 559.0
31.580906524 518.0
31.681174113 582.0
31.781441702 516.0
31.881709291 527.0
31.981976880 526.0
32.082244469 522.0
32.182512058 554.0
32.282779647 578.0
32.383047236 552.0
32.483314825 540.0
32.583582414 538.0
32.683850003 548.0
32.784117592 537.0
32.884385181 535.0
32.984652770 535.0
33.084920359 591.0
33.185187948 548.0
33.285455537 534.0
33.385723126 591.0
33.485990715 590.0
33.586258304 577.0
33.686525893 568.0
33.786793482 544.0
33.887061071 543.0
33.987328660 565.0
34.087596249 532.0
34.187863838 586.0
34.288131427 583.0
34.388399016 557.0
34.488666605 567.0
34.588934194 519.0
34.689201783 582.0
34.789469372 565.0
34.889736961 615.0
34.990004550 609.0
35.090272139 611.0
35.190539728 612.0
35.290807317 587.0
35.391074906 605.0
35.491342495 609.0
35.591610084 581.0
35.691877673 563.0
35.792145262 625.0
35.892412851 599.0
35.992680440 570.0
36.092948029 596.0
36.193215618 577.0
36.293483207 574.0
36.393750796 596.0
36.494018385 559.0
36.594285974 626.0
36.694553563 592.0
36.794821152 584.0
36.895088741 580.0
36.995356330 591.0
37.095623919 642.0
37.195891508 614.0
37.296159097 620.0
37.396426686 657.0
37.496694275 603.0
37.596961864 706.0
37.697229453 819.0
37.797497042 770.0
37.897764631 783.0
37.998032220 893.0
38.098299809 972.0
38.198567398 1106.0
38.298834987 1325.0
38.399102576 1477.0
38.499370165 1983.0
38.599637754 2805.0
38.699905343 3964.0
38.800172932 5680.0
38.900440521 7741.0
39.000708110 9368.0
39.100975699 8955.0
39.201243288 6484.0
39.301510877 4108.0
39.401778466 2591.0
39.502046055 1917.0
39.602313644 1436.0
39.702581233 1208.0
39.802848822 1088.0
39.903116411 917.0
40.003384000 883.0
40.103651589 918.0
40.203919178 828.0
40.304186767 730.0
40.404454356 737.0
40.504721945 705.0
40.604989534 720.0
40.705257123 696.0
40.805524712 688.0
40.905792301 685.0
41.006059890 674.0
41.106327479 648.0
41.206595068 669.0
41.306862657 697.0
41.407130246 696.0
41.507397835 615.0
41.607665424 685.0
41.707933013 604.0
41.808200602 648.0
41.908468191 678.0
42.008735780 663.0
42.109003369 670.0
42.209270958 649.0
42.309538547 596.0
42.409806136 698.0
42.510073725 692.0
42.610341314 661.0
42.710608903 662.0
42.810876492 714.0
42.911144081 644.0
43.011411670 627.0
43.111679259 631.0
43.211946848 689.0
43.312214437 636.0
43.412482026 684.0
43.512749615 612.0
43.613017204 651.0
43.713284793 653.0
43.813552382 661.0
43.913819971 636.0
44.014087560 606.0
44.114355149 600.0
44.214622738 616.0
44.314890327 664.0
44.415157916 667.0
44.515425505 655.0
44.615693094 623.0
44.715960683 629.0
44.816228272 633.0
44.916495861 653.0
45.016763449 665.0
45.117031038 687.0
45.217298627 649.0
45.317566216 644.0
45.417833805 700.0
45.518101394 648.0
45.618368983 628.0
45.718636572 627.0
45.818904161 604.0
45.919171750 665.0
46.019439339 642.0
46.119706928 648.0
46.219974517 609.0
46.320242106 626.0
46.420509695 688.0
46.520777284 657.0
46.621044873 625.0
46.721312462 676.0
46.821580051 645.0
46.921847640 720.0
47.022115229 826.0
47.122382818 738.0
47.222650407 651.0
47.322917996 665.0
47.423185585 703.0
47.523453174 700.0
47.623720763 713.0
47.723988352 680.0
47.824255941 743.0
47.924523530 861.0
48.024791119 1030.0
48.125058708 1178.0
48.225326297 1299.0
48.325593886 1292.0
48.425861475 1094.0
48.526129064 884.0
48.626396653 849.0
48.726664242 766.0
48.826931831 659.0
48.927199420 688.0
49.027467009 718.0
49.127734598 657.0
49.228002187 710.0
49.328269776 665.0
49.428537365 602.0
49.528804954 654.0
49.629072543 611.0
49.729340132 690.0
49.829607721 661.0
49.929875310 681.0
50.030142899 661.0
50.130410488 687.0
50.230678077 650.0
50.330945666 655.0
50.431213255 668.0
50.531480844 706.0
50.631748433 677.0
50.732016022 691.0
50.832283611 667.0
50.932551200 656.0
51.032818789 629.0
51.133086378 681.0
51.233353967 691.0
51.333621556 725.0
51.433889145 687.0
51.534156734 677.0
51.634424323 703.0
51.734691912 713.0
51.834959501 693.0
51.935227090 715.0
52.035494679 682.0
52.135762268 655.0
52.236029857 684.0
52.336297446 731.0
52.436565035 715.0
52.536832624 696.0
52.637100213 673.0
52.737367802 662.0
52.837635391 712.0
52.937902980 663.0
53.038170569 686.0
53.138438158 681.0
53.238705747 741.0
53.338973336 741.0
53.439240925 713.0
53.539508514 738.0
53.639776103 712.0
53.740043692 763.0
53.840311281 700.0
53.940578870 741.0
54.040846459 699.0
54.141114048 734.0
54.241381637 757.0
54.341649226 769.0
54.441916815 752.0
54.542184404 827.0
54.642451993 806.0
54.742719582 806.0
54.842987171 823.0
54.943254760 820.0
55.043522349 941.0
55.143789938 982.0
55.244057527 950.0
55.344325116 1102.0
55.444592705 1144.0
55.544860294 1324.0
55.645127883 1451.0
55.745395472 1567.0
55.845663061 1753.0
55.945930650 1930.0
56.046198239 2017.0
56.146465828 2240.0
56.246733417 2240.0
56.347001006 2041.0
56.447268595 2088.0
56.547536184 1726.0
56.647803773 1550.0
56.748071362 1382.0
56.848338951 1261.0
56.948606540 1176.0
57.048874129 1070.0
57.149141718 979.0
57.249409307 934.0
57.349676896 913.0
57.449944485 947.0
57.550212074 888.0
57.650479663 954.0
57.750747252 892.0
57.851014841 825.0
57.951282430 865.0
58.051550019 917.0
58.151817608 942.0
58.252085197 850.0
58.352352786 827.0
58.452620375 861.0
58.552887964 895.0
58.653155553 953.0
58.753423142 922.0
58.853690731 876.0
58.953958320 816.0
59.054225909 898.0
59.154493498 960.0
59.254761087 906.0
59.355028676 918.0
59.455296265 867.0
59.555563854 913.0
59.655831443 887.0
59.756099032 869.0
59.856366621 979.0
59.956634210 938.0
60.056901799 975.0
60.157169388 1019.0
60.257436977 1021.0
60.357704566 1018.0
60.457972155 962.0
60.558239744 990.0
60.658507333 1013.0
60.758774922 986.0
60.859042511 948.0
60.959310100 1088.0
61.059577689 946.0
61.159845278 981.0
61.260112867 984.0
61.360380456 1018.0
61.460648045 1018.0
61.560915634 956.0
61.661183222 956.0
61.761450811 983.0
61.861718400 1022.0
61.961985989 1071.0
62.062253578 1003.0
62.162521167 1109.0
62.262788756 1050.0
62.363056345 1157.0
62.463323934 1019.0
62.563591523 1141.0
62.663859112 1057.0
62.764126701 1112.0
62.864394290 1166.0
62.964661879 1186.0
63.064929468 1273.0
63.165197057 1233.0
63.265464646 1320.0
63.365732235 1411.0
63.465999824 1449.0
63.566267413 1624.0
63.666535002 1419.0
63.766802591 1508.0
63.867070180 1292.0
63.967337769 1375.0
64.067605358 1363.0
64.167872947 1258.0
64.268140536 1194.0
64.368408125 1123.0
64.468675714 1249.0
64.568943303 1150.0
64.669210892 1179.0
64.769478481 1165.0
64.869746070 1182.0
64.970013659 1144.0
65.070281248 1164.0
65.170548837 1280.0
65.270816426 1116.0
65.371084015 1210.0
65.471351604 1179.0
65.571619193 1210.0
65.671886782 1154.0
65.772154371 1217.0
65.872421960 1228.0
65.972689549 1203.0
66.072957138 1242.0
66.173224727 1192.0
66.273492316 1202.0
66.373759905 1217.0
66.474027494 1228.0
66.574295083 1233.0
66.674562672 1278.0
66.774830261 1192.0
66.875097850 1196.0
66.975365439 1212.0
67.075633028 1164.0
67.175900617 1251.0
67.276168206 1291.0
67.376435795 1109.0
67.476703384 1216.0
67.576970973 1224.0
67.677238562 1306.0
67.777506151 1321.0
67.877773740 1193.0
67.978041329 1306.0
68.078308918 1258.0
68.178576507 1313.0
68.278844096 1304.0
68.379111685 1350.0
68.479379274 1349.0
68.579646863 1341.0
68.679914452 1383.0
68.780182041 1375.0
68.880449630 1443.0
68.980717219 1349.0
69.080984808 1402.0
69.181252397 1450.0
69.281519986 1495.0
69.381787575 1638.0
69.482055164 1557.0
69.582322753 1711.0
69.682590342 1815.0
69.782857931 1972.0
69.883125520 2224.0
69.983393109 2389.0
70.083660698 2723.0
70.183928287 3132.0
70.284195876 3774.0
70.384463465 4182.0
70.484731054 4434.0
70.584998643 4308.0
70.685266232 3899.0
70.785533821 3361.0
70.885801410 2908.0
70.986068999 2498.0
71.086336588 2206.0
71.186604177 1989.0
71.286871766 1888.0
71.387139355 1729.0
71.487406944 1706.0
71.587674533 1526.0
71.687942122 1523.0
71.788209711 1510.0
71.888477300 1569.0
71.988744889 1589.0
72.089012478 1466.0
72.189280067 1469.0
72.289547656 1456.0
72.389815245 1409.0
72.490082834 1576.0
72.590350423 1475.0
72.690618012 1491.0
72.790885601 1430.0
72.891153190 1408.0
72.991420779 1405.0
73.091688368 1454.0
73.191955957 1447.0
73.292223546 1456.0
73.392491135 1365.0
73.492758724 1454.0
73.593026313 1577.0
73.693293902 1483.0
73.793561491 1426.0
73.893829080 1397.0
73.994096669 1353.0
74.094364258 1524.0
74.194631847 1479.0
74.294899436 1493.0
74.395167025 1437.0
74.495434614 1387.0
74.595702203 1519.0
74.695969792 1417.0
74.796237381 1480.0
74.896504970 1469.0
74.996772559 1556.0
75.097040148 1455.0
75.197307737 1481.0
75.297575326 1502.0
75.397842915 1423.0
75.498110504 1477.0
75.598378093 1433.0
75.698645682 1547.0
75.798913271 1534.0
75.899180860 1526.0
75.999448449 1459.0
76.099716038 1510.0
76.199983627 1538.0
76.300251216 1497.0
76.400518805 1517.0
76.500786394 1536.0
76.601053983 1562.0
76.701321572 1587.0
76.801589161 1515.0
76.901856750 1514.0
77.002124339 1592.0
77.102391928 1521.0
77.202659517 1510.0
77.302927106 1559.0
77.403194695 1501.0
77.503462284 1496.0
77.603729873 1494.0
77.703997462 1619.0
77.804265051 1564.0
77.904532640 1544.0
78.004800229 1558.0
78.105067818 1546.0
78.205335406 1564.0
78.305602995 1544.0
78.405870584 1533.0
78.506138173 1627.0
78.606405762 1546.0
78.706673351 1618.0
78.806940940 1646.0
78.907208529 1552.0
79.007476118 1539.0
79.107743707 1614.0
79.208011296 1555.0
79.308278885 1630.0
79.408546474 1632.0
79.508814063 1498.0
79.609081652 1657.0
79.709349241 1672.0
79.809616830 1710.0
79.909884419 1673.0
80.010152008 1607.0
80.110419597 1717.0
80.210687186 1566.0
80.310954775 1666.0
80.411222364 1698.0
80.511489953 1593.0
80.611757542 1607.0
80.712025131 1619.0
80.812292720 1652.0
80.912560309 1693.0
81.012827898 1636.0
81.113095487 1627.0
81.213363076 1718.0
81.313630665 1627.0
81.413898254 1741.0
81.514165843 1676.0
81.614433432 1688.0
81.714701021 1714.0
81.814968610 1669.0
81.915236199 1694.0
82.015503788 1771.0
82.115771377 1662.0
82.216038966 1725.0
82.316306555 1814.0
82.416574144 1739.0
82.516841733 1837.0
82.617109322 1844.0
82.717376911 1847.0
82.817644500 1909.0
82.917912089 1920.0
83.018179678 2047.0
83.118447267 2156.0
83.218714856 2307.0
83.318982445 2407.0
83.419250034 2469.0
83.519517623 2578.0
83.619785212 2522.0
83.720052801 2362.0
83.820320390 2308.0
83.920587979 2179.0
84.020855568 2150.0
84.121123157 2076.0
84.221390746 1887.0
84.321658335 1900.0
84.421925924 1849.0
84.522193513 1858.0
84.622461102 1870.0
84.722728691 1782.0
84.822996280 1861.0
84.923263869 1713.0
85.023531458 1767.0
85.123799047 1717.0
85.224066636 1688.0
85.324334225 1680.0
85.424601814 1693.0
85.524869403 1811.0
85.625136992 1820.0
85.725404581 1719.0
85.825672170 1715.0
85.925939759 1768.0
86.026207348 1775.0
86.126474937 1776.0
86.226742526 1778.0
86.327010115 1731.0
86.427277704 1716.0
86.527545293 1837.0
86.627812882 1876.0
86.728080471 1756.0
86.828348060 1724.0
86.928615649 1772.0
87.028883238 1772.0
87.129150827 1789.0
87.229418416 1877.0
87.329686005 1816.0
87.429953594 1862.0
87.530221183 1802.0
87.630488772 1832.0
87.730756361 1834.0
87.831023950 1817.0
87.931291539 1763.0
88.031559128 1822.0
88.131826717 1816.0
88.232094306 1815.0
88.332361895 1876.0
88.432629484 1780.0
88.532897073 1779.0
88.633164662 1787.0
88.733432251 1753.0
88.833699840 2018.0
88.933967429 1792.0
89.034235018 1921.0
89.134502607 1878.0
89.234770196 1933.0
89.335037785 1978.0
89.435305374 1923.0
89.535572963 1937.0
89.635840552 2020.0
89.736108141 1983.0
89.836375730 2091.0
89.936643319 2072.0
90.036910908 1995.0
90.137178497 2142.0
90.237446086 1987.0
90.337713675 1960.0
90.437981264 1961.0
90.538248853 1990.0
90.638516442 1958.0
90.738784031 1845.0
90.839051620 1902.0
90.939319209 1919.0
91.039586798 1819.0
91.139854387 1872.0
91.240121976 1844.0
91.340389565 1938.0
91.440657154 1869.0
91.540924743 1890.0
91.641192332 1870.0
91.741459921 1937.0
91.841727510 1904.0
91.941995099 1992.0
92.042262688 1943.0
92.142530277 1935.0
92.242797866 1944.0
92.343065455 1945.0
92.443333044 1880.0
92.543600633 1936.0
92.643868222 1998.0
92.744135811 1931.0
92.844403400 1840.0
92.944670989 2082.0
93.044938578 2073.0
93.145206167 2048.0
93.245473756 1963.0
93.345741345 1941.0
93.446008934 2014.0
93.546276523 2036.0
93.646544112 2030.0
93.746811701 2053.0
93.847079290 2042.0
93.947346879 2031.0
94.047614468 2011.0
94.147882057 2012.0
94.248149646 2078.0
94.348417235 2228.0
94.448684824 2132.0
94.548952413 2225.0
94.649220002 2169.0
94.749487591 2227.0
94.849755179 2228.0
94.950022768 2316.0
95.050290357 2303.0
95.150557946 2432.0
95.250825535 2422.0
95.351093124 2526.0
95.451360713 2445.0
95.551628302 2567.0
95.651895891 2703.0
95.752163480 2850.0
95.852431069 2956.0
95.952698658 2991.0
96.052966247 3020.0
96.153233836 2937.0
96.253501425 2992.0
96.353769014 3068.0
96.454036603 3104.0
96.554304192 2865.0
96.654571781 2833.0
96.754839370 2734.0
96.855106959 2685.0
96.955374548 2548.0
97.055642137 2465.0
97.155909726 2423.0
97.256177315 2474.0
97.356444904 2446.0
97.456712493 2339.0
97.556980082 2200.0
97.657247671 2331.0
97.757515260 2221.0
97.857782849 2216.0
97.958050438 2237.0
98.058318027 2201.0
98.158585616 2258.0
98.258853205 2139.0
98.359120794 2219.0
98.459388383 2097.0
98.559655972 2138.0
98.659923561 2119.0
98.760191150 2203.0
98.860458739 2307.0
98.960726328 2310.0
99.060993917 2247.0
99.161261506 2078.0
99.261529095 2270.0
99.361796684 2162.0
99.462064273 2128.0
99.562331862 2162.0
99.662599451 2139.0
99.762867040 2246.0
99.863134629 2229.0
99.963402218 2175.0
100.063669807 2163.0
100.163937396 2170.0
100.264204985 2128.0
100.364472574 2152.0
100.464740163 2246.0
100.565007752 2221.0
100.665275341 2081.0
100.765542930 2205.0
100.865810519 2249.0
100.966078108 2368.0
101.066345697 2216.0
101.166613286 2186.0
101.266880875 2166.0
101.367148464 2250.0
101.467416053 2182.0
101.567683642 2193.0
101.667951231 2246.0
101.768218820 2166.0
101.868486409 2199.0
101.968753998 2251.0
102.069021587 2389.0
102.169289176 2270.0
102.269556765 2274.0
102.369824354 2410.0
102.470091943 2499.0
102.570359532 2322.0
102.670627121 2381.0
102.770894710 2250.0
102.871162299 2317.0
102.971429888 2365.0
103.071697477 2358.0
103.171965066 2307.0
103.272232655 2313.0
103.372500244 2324.0
103.472767833 2360.0
103.573035422 2416.0
103.673303011 2339.0
103.773570600 2345.0
103.873838189 2349.0
103.974105778 2325.0
104.074373367 2420.0
104.174640956 2350.0
104.274908545 2369.0
104.375176134 2360.0
104.475443723 2369.0
104.575711312 2370.0
104.675978901 2362.0
104.776246490 2315.0
104.876514079 2295.0
104.976781668 2373.0
105.077049257 2407.0
105.177316846 2363.0
105.277584435 2377.0
105.377852024 2417.0
105.478119613 2411.0
105.578387202 2478.0
105.678654791 2514.0
105.778922380 2376.0
105.879189969 2439.0
105.979457558 2430.0
106.079725147 2412.0
106.179992736 2483.0
106.280260325 2427.0
106.380527914 2393.0
106.480795503 2312.0
106.581063092 2385.0
106.681330681 2485.0
106.781598270 2381.0
106.881865859 2421.0
106.982133448 2454.0
107.082401037 2521.0
107.182668626 2417.0
107.282936215 2421.0
107.383203804 2466.0
107.483471393 2517.0
107.583738982 2427.0
107.684006571 2418.0
107.784274160 2482.0
107.884541749 2377.0
107.984809338 2483.0
108.085076927 2470.0
108.185344516 2516.0
108.285612105 2636.0
108.385879694 2609.0
108.486147283 2524.0
108.586414872 2604.0
108.686682461 2674.0
108.786950050 2835.0
108.887217639 2903.0
108.987485228 3002.0
109.087752817 3069.0
109.188020406 3077.0
109.288287995 3207.0
109.388555584 3097.0
109.488823173 2932.0
109.589090762 3029.0
109.689358351 2796.0
109.789625940 2805.0
109.889893529 2838.0
109.990161118 2627.0
110.090428707 2604.0
110.190696296 2628.0
110.290963885 2645.0
110.391231474 2738.0
110.491499063 2610.0
110.591766652 2500.0
110.692034241 2583.0
110.792301830 2609.0
110.892569419 2693.0
110.992837008 2479.0
111.093104597 2465.0
111.193372186 2548.0
111.293639775 2557.0
111.393907364 2631.0
111.494174952 2547.0
111.594442541 2526.0
111.694710130 2492.0
111.794977719 2563.0
111.895245308 2641.0
111.995512897 2597.0
112.095780486 2553.0
112.196048075 2539.0
112.296315664 2547.0
112.396583253 2604.0
112.496850842 2564.0
112.597118431 2544.0
112.697386020 2637.0
112.797653609 2622.0
112.897921198 2491.0
112.998188787 2674.0
113.098456376 2593.0
113.198723965 2528.0
113.298991554 2506.0
113.399259143 2497.0
113.499526732 2607.0
113.599794321 2638.0
113.700061910 2654.0
113.800329499 2607.0
113.900597088 2649.0
114.000864677 2631.0
114.101132266 2761.0
114.201399855 2752.0
114.301667444 2697.0
114.401935033 2722.0
114.502202622 2747.0
114.602470211 2848.0
114.702737800 2741.0
114.803005389 2727.0
114.903272978 2726.0
115.003540567 2791.0
115.103808156 2823.0
115.204075745 2889.0
115.304343334 2739.0
115.404610923 2728.0
115.504878512 2770.0
115.605146101 2736.0
115.705413690 2787.0
115.805681279 2771.0
115.905948868 2762.0
116.006216457 2803.0
116.106484046 2862.0
116.206751635 2765.0
116.307019224 2697.0
116.407286813 2823.0
116.507554402 2764.0
116.607821991 2722.0
116.708089580 2802.0
116.808357169 2689.0
116.908624758 2630.0
117.008892347 2808.0
117.109159936 2699.0
117.209427525 2880.0
117.309695114 2832.0
117.409962703 2735.0
117.510230292 2719.0
117.610497881 2902.0
117.710765470 2863.0
117.811033059 2924.0
117.911300648 2798.0
118.011568237 2846.0
118.111835826 2750.0
118.212103415 2918.0
118.312371004 2859.0
118.412638593 2851.0
118.512906182 2880.0
118.613173771 2872.0
118.713441360 2907.0
118.813708949 2897.0
118.913976538 2872.0
119.014244127 2865.0
119.114511716 2851.0
119.214779305 2895.0
119.315046894 2922.0
119.415314483 2944.0
119.515582072 2875.0
119.615849661 2953.0
119.716117250 2996.0
