10.050133790 1150.0
10.150401379 1271.0
10.250668968 1128.0
10.350936557 1148.0
10.451204146 1208.0
10.551471735 1201.0
10.651739324 1209.0
10.752006913 1123.0
10.852274502 1150.0
10.952542091 1151.0
11.052809680 1176.0
11.153077269 1189.0
11.253344858 1215.0
11.353612447 1162.0
11.453880036 1190.0
11.554147625 1044.0
11.654415214 1188.0
11.754682803 1200.0
11.854950392 1126.0
11.955217981 1117.0
12.055485570 1222.0
12.155753159 1078.0
12.256020748 1142.0
12.356288337 1199.0
12.456555926 1153.0
12.556823515 1164.0
12.657091104 1164.0
12.757358693 1148.0
12.857626282 1146.0
12.957893871 1137.0
13.058161460 1165.0
13.158429049 1194.0
13.258696638 1197.0
13.358964227 1178.0
13.459231816 1153.0
13.559499405 1145.0
13.659766994 1055.0
13.760034583 1095.0
13.860302171 1087.0
13.960569760 1206.0
14.060837349 1194.0
14.161104938 1168.0
14.261372527 1121.0
14.361640116 1090.0
14.461907705 1091.0
14.562175294 1132.0
14.662442883 1098.0
14.762710472 1138.0
14.862978061 1133.0
14.963245650 1090.0
15.063513239 1199.0
15.163780828 1107.0
15.264048417 1125.0
15.364316006 1116.0
15.464583595 1195.0
15.564851184 1239.0
15.665118773 1281.0
15.765386362 1346.0
15.865653951 1273.0
15.965921540 1237.0
16.066189129 1221.0
16.166456718 1213.0
16.266724307 1174.0
16.366991896 1136.0
16.467259485 1156.0
16.567527074 1130.0
16.667794663 1096.0
16.768062252 1105.0
16.868329841 1087.0
16.968597430 1122.0
17.068865019 1063.0
17.169132608 1117.0
17.269400197 1098.0
17.369667786 1073.0
17.469935375 1075.0
17.570202964 1072.0
17.670470553 1152.0
17.770738142 1048.0
17.871005731 1098.0
17.971273320 1055.0
18.071540909 1118.0
18.171808498 1037.0
18.272076087 1048.0
18.372343676 1072.0
18.472611265 1093.0
18.572878854 1062.0
18.673146443 1096.0
18.773414032 1097.0
18.873681621 1048.0
18.973949210 1027.0
19.074216799 1086.0
19.174484388 1038.0
19.274751977 1080.0
19.375019566 1041.0
19.475287155 1122.0
19.575554744 1049.0
19.675822333 1012.0
19.776089922 1039.0
19.876357511 1116.0
19.976625100 1077.0
20.076892689 1045.0
20.177160278 1036.0
20.277427867 1051.0
20.377695456 1059.0
20.477963045 1044.0
20.578230634 1115.0
20.678498223 1152.0
20.778765812 1040.0
20.879033401 998.0
20.979300990 1010.0
21.079568579 1064.0
21.179836168 1025.0
21.280103756 1083.0
21.380371345 1111.0
21.480638934 1119.0
21.580906523 1080.0
21.681174112 1109.0
21.781441701 1179.0
21.881709290 1120.0
21.981976879 1344.0
22.082244468 1447.0
22.182512057 1724.0
22.282779646 2173.0
22.383047235 2914.0
22.483314824 3372.0
22.583582413 3628.0
22.683850002 3558.0
22.784117591 2844.0
22.884385180 2266.0
22.984652769 1844.0
23.084920358 1594.0
23.185187947 1408.0
23.285455536 1229.0
23.385723125 1124.0
23.485990714 1119.0
23.586258303 1023.0
23.686525892 1067.0
23.786793481 1064.0
23.887061070 1100.0
23.987328659 1096.0
24.087596248 1025.0
24.187863837 1133.0
24.288131426 1105.0
24.388399015 1026.0
24.488666604 1037.0
24.588934193 1020.0
24.689201782 1081.0
24.789469371 1005.0
24.889736960 1016.0
24.990004549 1005.0
25.090272138 941.0
25.190539727 1025.0
25.290807316 1018.0
25.391074905 984.0
25.491342494 941.0
25.591610083 1042.0
25.691877672 946.0
25.792145261 968.0
25.892412850 1041.0
25.992680439 991.0
26.092948028 995.0
26.193215617 950.0
26.293483206 994.0
26.393750795 1008.0
26.494018384 1068.0
26.594285973 956.0
26.694553562 1038.0
26.794821151 1059.0
26.895088740 1056.0
26.995356329 1163.0
27.095623918 1246.0
27.195891507 1224.0
27.296159096 1303.0
27.396426685 1330.0
27.496694274 1379.0
27.596961863 1261.0
27.697229452 1236.0
27.797497041 1213.0
27.897764630 1239.0
27.998032219 1285.0
28.098299808 1301.0
28.198567397 1177.0
28.298834986 1084.0
28.399102575 1055.0
28.499370164 1070.0
28.599637753 1060.0
28.699905342 1049.0
28.800172930 1052.0
28.900440519 982.0
29.000708108 1020.0
29.100975697 987.0
29.201243286 1046.0
29.301510875 1051.0
29.401778464 1146.0
29.502046053 1135.0
29.602313642 1121.0
29.702581231 982.0
29.802848820 1096.0
29.903116409 1134.0
30.003383998 1118.0
30.103651587 1150.0
30.203919176 1215.0
30.304186765 1080.0
30.404454354 1152.0
30.504721943 1064.0
30.604989532 1095.0
30.705257121 1008.0
30.805524710 1010.0
30.905792299 999.0
31.006059888 896.0
31.106327477 1036.0
31.206595066 995.0
31.306862655 1089.0
31.407130244 1165.0
31.507397833 1203.0
31.607665422 1371.0
31.707933011 1361.0
31.808200600 1357.0
31.908468189 1329.0
32.008735778 1485.0
32.109003367 1661.0
32.209270956 2066.0
32.309538545 2580.0
32.409806134 3121.0
32.510073723 3665.0
32.610341312 3717.0
32.710608901 2829.0
32.810876490 2067.0
32.911144079 1811.0
33.011411668 1479.0
33.111679257 1389.0
33.211946846 1343.0
33.312214435 1403.0
33.412482024 1491.0
33.512749613 1687.0
33.613017202 1820.0
33.713284791 2080.0
33.813552380 1941.0
33.913819969 1956.0
34.014087558 1760.0
34.114355147 1591.0
34.214622736 1431.0
34.314890325 1375.0
34.415157914 1348.0
34.515425503 1368.0
34.615693092 1386.0
34.715960681 1590.0
34.816228270 1737.0
34.916495859 2019.0
35.016763448 2430.0
35.117031037 2705.0
35.217298626 2916.0
35.317566215 2773.0
35.417833804 2445.0
35.518101393 2132.0
35.618368982 1826.0
35.718636571 1616.0
35.818904160 1414.0
35.919171749 1379.0
36.019439338 1324.0
36.119706927 1284.0
36.219974516 1232.0
36.320242104 1337.0
36.420509693 1308.0
36.520777282 1180.0
36.621044871 1189.0
36.721312460 1210.0
36.821580049 1207.0
36.921847638 1211.0
37.022115227 1221.0
37.122382816 1256.0
37.222650405 1342.0
37.322917994 1335.0
37.423185583 1305.0
37.523453172 1328.0
37.623720761 1337.0
37.723988350 1398.0
37.824255939 1424.0
37.924523528 1587.0
38.024791117 1651.0
38.125058706 1791.0
38.225326295 2047.0
38.325593884 2274.0
38.425861473 2467.0
38.526129062 2498.0
38.626396651 2642.0
38.726664240 2547.0
38.826931829 2377.0
38.927199418 2420.0
39.027467007 2417.0
39.127734596 2422.0
39.228002185 2614.0
39.328269774 2567.0
39.428537363 2738.0
39.528804952 2721.0
39.629072541 2760.0
39.729340130 2777.0
39.829607719 2775.0
39.929875308 2808.0
40.030142897 2782.0
40.130410486 3006.0
40.230678075 3215.0
40.330945664 3468.0
40.431213253 3713.0
40.531480842 3706.0
40.631748431 3459.0
40.732016020 2996.0
40.832283609 2724.0
40.932551198 2478.0
41.032818787 2189.0
41.133086376 1927.0
41.233353965 1728.0
41.333621554 1601.0
41.433889143 1607.0
41.534156732 1468.0
41.634424321 1531.0
41.734691910 1520.0
41.834959499 1482.0
41.935227088 1380.0
42.035494677 1425.0
42.135762266 1382.0
42.236029855 1389.0
42.336297444 1417.0
42.436565033 1430.0
42.536832622 1375.0
42.637100211 1314.0
42.737367800 1188.0
42.837635389 1230.0
42.937902978 1153.0
43.038170567 1159.0
43.138438156 1159.0
43.238705745 1151.0
43.338973334 1167.0
43.439240923 1202.0
43.539508512 1244.0
43.639776101 1292.0
43.740043689 1287.0
43.840311278 1377.0
43.940578867 1410.0
44.040846456 1352.0
44.141114045 1349.0
44.241381634 1397.0
44.341649223 1404.0
44.441916812 1292.0
44.542184401 1374.0
44.642451990 1363.0
44.742719579 1489.0
44.842987168 1624.0
44.943254757 1844.0
45.043522346 1999.0
45.143789935 2359.0
45.244057524 2690.0
45.344325113 3136.0
45.444592702 3708.0
45.544860291 4281.0
45.645127880 4858.0
45.745395469 5758.0
45.845663058 6126.0
45.945930647 6882.0
46.046198236 7190.0
46.146465825 7040.0
46.246733414 6278.0
46.347001003 5388.0
46.447268592 4425.0
46.547536181 3879.0
46.647803770 3601.0
46.748071359 3434.0
46.848338948 3083.0
46.948606537 2987.0
47.048874126 2670.0
47.149141715 2363.0
47.249409304 2236.0
47.349676893 1965.0
47.449944482 1731.0
47.550212071 1634.0
47.650479660 1493.0
47.750747249 1442.0
47.851014838 1369.0
47.951282427 1337.0
48.051550016 1357.0
48.151817605 1346.0
48.252085194 1432.0
48.352352783 1421.0
48.452620372 1393.0
48.552887961 1490.0
48.653155550 1527.0
48.753423139 1669.0
48.853690728 1717.0
48.953958317 1786.0
49.054225906 2059.0
49.154493495 2271.0
49.254761084 2490.0
49.355028673 2723.0
49.455296262 2866.0
49.555563851 2929.0
49.655831440 2737.0
49.756099029 2428.0
49.856366618 1962.0
49.956634207 1647.0
50.056901796 1373.0
50.157169385 1185.0
50.257436974 1171.0
50.357704563 1025.0
50.457972152 991.0
50.558239741 942.0
50.658507330 895.0
50.758774919 904.0
50.859042508 963.0
50.959310097 925.0
51.059577686 935.0
51.159845275 935.0
51.260112863 973.0
51.360380452 950.0
51.460648041 1004.0
51.560915630 973.0
51.661183219 1037.0
51.761450808 1002.0
51.861718397 1011.0
51.961985986 985.0
52.062253575 1015.0
52.162521164 998.0
52.262788753 1031.0
52.363056342 1003.0
52.463323931 1056.0
52.563591520 1018.0
52.663859109 1111.0
52.764126698 1089.0
52.864394287 1204.0
52.964661876 1200.0
53.064929465 1196.0
53.165197054 1093.0
53.265464643 1025.0
53.365732232 975.0
53.465999821 937.0
53.566267410 896.0
53.666534999 903.0
53.766802588 907.0
53.867070177 920.0
53.967337766 933.0
54.067605355 896.0
54.167872944 856.0
54.268140533 876.0
54.368408122 891.0
54.468675711 869.0
54.568943300 977.0
54.669210889 976.0
54.769478478 1001.0
54.869746067 1056.0
54.970013656 1079.0
55.070281245 1103.0
55.170548834 1092.0
55.270816423 1190.0
55.371084012 1077.0
55.471351601 1083.0
55.571619190 1130.0
55.671886779 1118.0
55.772154368 1122.0
55.872421957 1142.0
55.972689546 1174.0
56.072957135 1174.0
56.173224724 1225.0
56.273492313 1269.0
56.373759902 1260.0
56.474027491 1356.0
56.574295080 1320.0
56.674562669 1328.0
56.774830258 1307.0
56.875097847 1340.0
56.975365436 1292.0
57.075633025 1259.0
57.175900614 1129.0
57.276168203 1189.0
57.376435792 1153.0
57.476703381 1193.0
57.576970970 1118.0
57.677238559 1186.0
57.777506148 1163.0
57.877773737 1211.0
57.978041326 1197.0
58.078308915 1238.0
58.178576504 1229.0
58.278844093 1288.0
58.379111682 1238.0
58.479379271 1251.0
58.579646860 1210.0
58.679914449 1264.0
58.780182037 1224.0
58.880449626 1266.0
58.980717215 1178.0
59.080984804 1317.0
59.181252393 1323.0
59.281519982 1318.0
59.381787571 1289.0
59.482055160 1311.0
59.582322749 1406.0
59.682590338 1438.0
59.782857927 1412.0
59.883125516 1461.0
59.983393105 1501.0
60.083660694 1469.0
60.183928283 1399.0
60.284195872 1443.0
60.384463461 1527.0
60.484731050 1454.0
60.584998639 1497.0
60.685266228 1615.0
60.785533817 1596.0
60.885801406 1625.0
60.986068995 1678.0
61.086336584 1703.0
61.186604173 1681.0
61.286871762 1699.0
61.387139351 1684.0
61.487406940 1760.0
61.587674529 1703.0
61.687942118 1739.0
61.788209707 1713.0
61.888477296 1683.0
61.988744885 1737.0
62.089012474 1696.0
62.189280063 1745.0
62.289547652 1798.0
62.389815241 1822.0
62.490082830 1962.0
62.590350419 1923.0
62.690618008 1977.0
62.790885597 2102.0
62.891153186 2187.0
62.991420775 2218.0
63.091688364 2427.0
63.191955953 2504.0
63.292223542 2543.0
63.392491131 2419.0
63.492758720 2284.0
63.593026309 2358.0
63.693293898 2247.0
63.793561487 2413.0
63.893829076 2427.0
63.994096665 2429.0
64.094364254 2442.0
64.194631843 2591.0
64.294899432 2683.0
64.395167021 2724.0
64.495434610 2766.0
64.595702199 2792.0
64.695969788 2663.0
64.796237377 2577.0
64.896504966 2539.0
64.996772555 2497.0
65.097040144 2388.0
65.197307733 2196.0
65.297575322 2239.0
65.397842911 2190.0
65.498110500 2174.0
65.598378089 2235.0
65.698645678 2278.0
65.798913267 2330.0
65.899180856 2334.0
65.999448445 2442.0
66.099716034 2485.0
66.199983622 2451.0
66.300251211 2584.0
66.400518800 2581.0
66.500786389 2570.0
66.601053978 2527.0
66.701321567 2588.0
66.801589156 2571.0
66.901856745 2471.0
67.002124334 2541.0
67.102391923 2465.0
67.202659512 2414.0
67.302927101 2516.0
67.403194690 2406.0
67.503462279 2606.0
67.603729868 2613.0
67.703997457 2623.0
67.804265046 2545.0
67.904532635 2609.0
68.004800224 2670.0
68.105067813 2680.0
68.205335402 2686.0
68.305602991 2687.0
68.405870580 2761.0
68.506138169 2832.0
68.606405758 2882.0
68.706673347 2909.0
68.806940936 2837.0
68.907208525 2941.0
69.007476114 3018.0
69.107743703 3000.0
69.208011292 2874.0
69.308278881 2891.0
69.408546470 2732.0
69.508814059 2823.0
69.609081648 2617.0
69.709349237 2715.0
69.809616826 2608.0
69.909884415 2597.0
70.010152004 2559.0
70.110419593 2549.0
70.210687182 2460.0
70.310954771 2381.0
70.411222360 2481.0
70.511489949 2434.0
70.611757538 2497.0
70.712025127 2543.0
70.812292716 2477.0
70.912560305 2446.0
71.012827894 2553.0
71.113095483 2559.0
71.213363072 2492.0
71.313630661 2510.0
71.413898250 2719.0
71.514165839 2666.0
71.614433428 2715.0
71.714701017 2738.0
71.814968606 2855.0
71.915236195 2824.0
72.015503784 2920.0
72.115771373 3003.0
72.216038962 3153.0
72.316306551 3132.0
72.416574140 3295.0
72.516841729 3416.0
72.617109318 3504.0
72.717376907 3548.0
72.817644496 3871.0
72.917912085 4163.0
73.018179674 4108.0
73.118447263 4370.0
73.218714852 4531.0
73.318982441 4719.0
73.419250030 4884.0
73.519517619 4870.0
73.619785208 5034.0
73.720052796 5164.0
73.820320385 4932.0
73.920587974 4930.0
74.020855563 4893.0
74.121123152 4578.0
74.221390741 4149.0
74.321658330 3713.0
74.421925919 3710.0
74.522193508 3512.0
74.622461097 3257.0
74.722728686 3117.0
74.822996275 2963.0
74.923263864 2871.0
75.023531453 2821.0
75.123799042 2881.0
75.224066631 2722.0
75.324334220 2794.0
75.424601809 2796.0
75.524869398 2788.0
75.625136987 2779.0
75.725404576 2901.0
75.825672165 2733.0
75.925939754 2745.0
76.026207343 2770.0
76.126474932 2770.0
76.226742521 2774.0
76.327010110 2954.0
76.427277699 2874.0
76.527545288 2970.0
76.627812877 3054.0
76.728080466 2985.0
76.828348055 3029.0
76.928615644 2900.0
77.028883233 2945.0
77.129150822 2921.0
77.229418411 2856.0
77.329686000 2928.0
77.429953589 2914.0
77.530221178 3020.0
77.630488767 2908.0
77.730756356 2913.0
77.831023945 2950.0
77.931291534 2866.0
78.031559123 2909.0
78.131826712 2939.0
78.232094301 2880.0
78.332361890 2968.0
78.432629479 2866.0
78.532897068 2902.0
78.633164657 2796.0
78.733432246 2740.0
78.833699835 2860.0
78.933967424 2913.0
79.034235013 2840.0
79.134502602 2880.0
79.234770191 2837.0
79.335037780 2881.0
79.435305369 2837.0
79.535572958 2787.0
79.635840547 2885.0
79.736108136 2967.0
79.836375725 2912.0
79.936643314 2859.0
80.036910903 2878.0
80.137178492 2787.0
80.237446081 2843.0
80.337713670 2835.0
80.437981259 2829.0
80.538248848 2707.0
80.638516437 2882.0
80.738784026 2812.0
80.839051615 2891.0
80.939319204 2950.0
81.039586793 2871.0
81.139854381 2769.0
81.240121970 2831.0
81.340389559 2860.0
81.440657148 2765.0
81.540924737 2815.0
81.641192326 2908.0
81.741459915 2919.0
81.841727504 2828.0
81.941995093 2980.0
82.042262682 2951.0
82.142530271 2866.0
82.242797860 2940.0
82.343065449 2880.0
82.443333038 2848.0
82.543600627 2945.0
82.643868216 2778.0
82.744135805 2936.0
82.844403394 2910.0
82.944670983 2936.0
83.044938572 3010.0
83.145206161 3028.0
83.245473750 3025.0
83.345741339 3003.0
83.446008928 3053.0
83.546276517 2856.0
83.646544106 3008.0
83.746811695 3065.0
83.847079284 3149.0
83.947346873 2863.0
84.047614462 2991.0
84.147882051 3017.0
84.248149640 2948.0
84.348417229 3068.0
84.448684818 2954.0
84.548952407 3018.0
84.649219996 2968.0
84.749487585 2841.0
84.849755174 2969.0
84.950022763 3054.0
85.050290352 2886.0
85.150557941 2962.0
85.250825530 2992.0
85.351093119 2989.0
85.451360708 2965.0
85.551628297 2989.0
85.651895886 2897.0
85.752163475 2921.0
85.852431064 2865.0
85.952698653 2985.0
86.052966242 3070.0
86.153233831 3055.0
86.253501420 2982.0
86.353769009 3007.0
86.454036598 3026.0
86.554304187 3029.0
86.654571776 3080.0
86.754839365 3112.0
86.855106954 2993.0
86.955374543 3116.0
87.055642132 3130.0
87.155909721 3099.0
87.256177310 3100.0
87.356444899 3175.0
87.456712488 3216.0
87.556980077 3174.0
87.657247666 3070.0
87.757515255 3081.0
87.857782844 3023.0
87.958050433 3019.0
88.058318022 3167.0
88.158585611 3195.0
88.258853200 3085.0
88.359120789 3119.0
88.459388378 3028.0
88.559655967 3144.0
88.659923555 3092.0
88.760191144 3048.0
88.860458733 3164.0
88.960726322 3091.0
89.060993911 3098.0
89.161261500 3186.0
89.261529089 3113.0
89.361796678 3090.0
89.462064267 3106.0
89.562331856 3184.0
89.662599445 3177.0
89.762867034 3158.0
89.863134623 3207.0
89.963402212 3106.0
90.063669801 3202.0
90.163937390 3167.0
90.264204979 3123.0
90.364472568 3264.0
90.464740157 3261.0
90.565007746 3366.0
90.665275335 3428.0
90.765542924 3311.0
90.865810513 3535.0
90.966078102 3374.0
91.066345691 3455.0
91.166613280 3547.0
91.266880869 3686.0
91.367148458 3698.0
91.467416047 3668.0
91.567683636 3801.0
91.667951225 3784.0
91.768218814 3927.0
91.868486403 3969.0
91.968753992 3864.0
92.069021581 3850.0
92.169289170 3787.0
92.269556759 3534.0
92.369824348 3592.0
92.470091937 3581.0
92.570359526 3601.0
92.670627115 3605.0
92.770894704 3501.0
92.871162293 3414.0
92.971429882 3362.0
93.071697471 3416.0
93.171965060 3237.0
93.272232649 3307.0
93.372500238 3296.0
93.472767827 3252.0
93.573035416 3415.0
93.673303005 3309.0
93.773570594 3444.0
93.873838183 3353.0
93.974105772 3325.0
94.074373361 3498.0
94.174640950 3624.0
94.274908539 3555.0
94.375176128 3515.0
94.475443717 3623.0
94.575711306 3542.0
94.675978895 3536.0
94.776246484 3449.0
94.876514073 3508.0
94.976781662 3551.0
95.077049251 3480.0
95.177316840 3497.0
95.277584429 3480.0
95.377852018 3533.0
95.478119607 3684.0
95.578387196 3637.0
95.678654785 3754.0
95.778922374 3776.0
95.879189963 3706.0
95.979457552 3780.0
96.079725141 3677.0
96.179992729 3845.0
96.280260318 3657.0
96.380527907 3610.0
96.480795496 3654.0
96.581063085 3792.0
96.681330674 3764.0
96.781598263 3806.0
96.881865852 3899.0
96.982133441 3940.0
97.082401030 3830.0
97.182668619 3844.0
97.282936208 3783.0
97.383203797 3634.0
97.483471386 3700.0
97.583738975 3635.0
97.684006564 3619.0
97.784274153 3681.0
97.884541742 3698.0
97.984809331 3649.0
98.085076920 3761.0
98.185344509 3780.0
98.285612098 3797.0
98.385879687 3678.0
98.486147276 3870.0
98.586414865 3916.0
98.686682454 3815.0
98.786950043 3852.0
98.887217632 3888.0
98.987485221 3756.0
99.087752810 3821.0
99.188020399 3832.0
99.288287988 3684.0
99.388555577 3759.0
99.488823166 3727.0
99.589090755 3675.0
99.689358344 3734.0
99.789625933 3726.0
99.889893522 3845.0
99.990161111 3695.0
100.090428700 3845.0
100.190696289 3915.0
100.290963878 3844.0
100.391231467 3901.0
100.491499056 3915.0
100.591766645 3878.0
100.692034234 3899.0
100.792301823 4080.0
100.892569412 3961.0
100.992837001 4026.0
101.093104590 4075.0
101.193372179 3938.0
101.293639768 3956.0
101.393907357 4072.0
101.494174946 4114.0
101.594442535 4084.0
101.694710124 4151.0
101.794977713 4205.0
101.895245302 4195.0
101.995512891 4147.0
102.095780480 4194.0
102.196048069 4370.0
102.296315658 4268.0
102.396583247 4467.0
102.496850836 4614.0
102.597118425 4451.0
102.697386014 4469.0
102.797653603 4492.0
102.897921192 4630.0
102.998188781 4628.0
103.098456370 4578.0
103.198723959 4737.0
103.298991548 4575.0
103.399259137 4695.0
103.499526726 4619.0
103.599794314 4515.0
103.700061903 4629.0
103.800329492 4455.0
103.900597081 4387.0
104.000864670 4417.0
104.101132259 4398.0
104.201399848 4335.0
104.301667437 4476.0
104.401935026 4516.0
104.502202615 4460.0
104.602470204 4593.0
104.702737793 4461.0
104.803005382 4661.0
104.903272971 4537.0
105.003540560 4438.0
105.103808149 4582.0
105.204075738 4625.0
105.304343327 4441.0
105.404610916 4618.0
105.504878505 4494.0
105.605146094 4449.0
105.705413683 4443.0
105.805681272 4489.0
105.905948861 4399.0
106.006216450 4316.0
106.106484039 4427.0
106.206751628 4291.0
106.307019217 4448.0
106.407286806 4250.0
106.507554395 4357.0
106.607821984 4399.0
106.708089573 4367.0
106.808357162 4273.0
106.908624751 4350.0
107.008892340 4417.0
107.109159929 4192.0
107.209427518 4173.0
107.309695107 4363.0
107.409962696 4286.0
107.510230285 4278.0
107.610497874 4335.0
107.710765463 4480.0
107.811033052 4427.0
107.911300641 4297.0
108.011568230 4235.0
108.111835819 4356.0
108.212103408 4350.0
108.312370997 4375.0
108.412638586 4485.0
108.512906175 4358.0
108.613173764 4386.0
108.713441353 4414.0
108.813708942 4508.0
108.913976531 4530.0
109.014244120 4606.0
109.114511709 4614.0
109.214779298 4463.0
109.315046887 4652.0
109.415314476 4537.0
109.515582065 4652.0
109.615849654 4642.0
109.716117243 4611.0
109.816384832 4644.0
109.916652421 4615.0
110.016920010 4586.0
110.117187599 4598.0
110.217455188 4749.0
110.317722777 4695.0
110.417990366 4703.0
110.518257955 4618.0
110.618525544 4858.0
110.718793133 4647.0
110.819060722 4760.0
110.919328311 4716.0
111.019595900 4616.0
111.119863488 4762.0
111.220131077 4711.0
111.320398666 4572.0
111.420666255 4857.0
111.520933844 4784.0
111.621201433 4875.0
111.721469022 4829.0
111.821736611 4826.0
111.922004200 4761.0
112.022271789 4690.0
112.122539378 4711.0
112.222806967 4753.0
112.323074556 4804.0
112.423342145 4784.0
112.523609734 4746.0
112.623877323 4550.0
112.724144912 4765.0
112.824412501 4814.0
112.924680090 4812.0
113.024947679 4681.0
113.125215268 4784.0
113.225482857 4777.0
113.325750446 4864.0
113.426018035 4796.0
113.526285624 4827.0
113.626553213 4876.0
113.726820802 4936.0
113.827088391 4972.0
113.927355980 4848.0
114.027623569 4925.0
114.127891158 4899.0
114.228158747 4982.0
114.328426336 5068.0
114.428693925 5038.0
114.528961514 5166.0
114.629229103 5057.0
114.729496692 5107.0
114.829764281 4993.0
114.930031870 5184.0
115.030299459 5076.0
115.130567048 5125.0
115.230834637 5069.0
115.331102226 5126.0
115.431369815 5058.0
115.531637404 5069.0
115.631904993 5063.0
115.732172582 5198.0
115.832440171 5110.0
115.932707760 5146.0
116.032975349 5027.0
116.133242938 5230.0
116.233510527 5094.0
116.333778116 5071.0
116.434045705 5091.0
116.534313294 5341.0
116.634580883 5232.0
116.734848472 5247.0
116.835116061 5104.0
116.935383650 5115.0
117.035651239 5206.0
117.135918828 5254.0
117.236186417 5481.0
117.336454006 5270.0
117.436721595 5493.0
117.536989184 5481.0
117.637256773 5521.0
117.737524362 5445.0
117.837791951 5522.0
117.938059540 5500.0
118.038327129 5500.0
118.138594718 5355.0
118.238862307 5460.0
118.339129896 5331.0
118.439397485 5732.0
118.539665074 5520.0
118.639932662 5622.0
118.740200251 5391.0
118.840467840 5429.0
118.940735429 5560.0
119.041003018 5463.0
119.141270607 5349.0
119.241538196 5526.0
119.341805785 5387.0
119.442073374 5560.0
119.542340963 5272.0
119.642608552 5481.0
119.742876141 5498.0
119.843143730 5518.0
119.943411319 5612.0
120.043678908 5676.0
120.143946497 5661.0
120.244214086 5573.0
120.344481675 5529.0
120.444749264 5489.0
120.545016853 5399.0
120.645284442 5641.0
120.745552031 5542.0
120.845819620 5566.0
120.946087209 5542.0
121.046354798 5513.0
121.146622387 5598.0
121.246889976 5598.0
121.347157565 5605.0
121.447425154 5584.0
121.547692743 5633.0
121.647960332 5576.0
121.748227921 5658.0
121.848495510 5583.0
121.948763099 5609.0
122.049030688 5494.0
122.149298277 5477.0
122.249565866 5753.0
122.349833455 5633.0
122.450101044 5589.0
122.550368633 5577.0
122.650636222 5365.0
122.750903811 5543.0
122.851171400 5586.0
122.951438989 5551.0
123.051706578 5530.0
123.151974167 5529.0
123.252241756 5736.0
123.352509345 5570.0
123.452776934 5552.0
123.553044523 5507.0
123.653312112 5485.0
123.753579701 5651.0
123.853847290 5604.0
123.954114879 5484.0
124.054382468 5509.0
124.154650057 5578.0
124.254917646 5547.0
124.355185235 5700.0
124.455452824 5586.0
124.555720413 5575.0
124.655988002 5505.0
124.756255591 5677.0
124.856523180 5505.0
124.956790769 5673.0
125.057058358 5615.0
125.157325947 5601.0
125.257593536 5613.0
125.357861125 5623.0
125.458128714 5771.0
125.558396303 5780.0
125.658663892 5816.0
125.758931481 5542.0
125.859199070 5736.0
125.959466659 5523.0
126.059734247 5826.0
126.160001836 5820.0
126.260269425 5841.0
126.360537014 5727.0
126.460804603 5808.0
126.561072192 5883.0
126.661339781 5926.0
126.761607370 5930.0
126.861874959 5940.0
126.962142548 5896.0
127.062410137 5957.0
127.162677726 5804.0
127.262945315 5818.0
127.363212904 5814.0
127.463480493 5918.0
127.563748082 6066.0
127.664015671 5827.0
127.764283260 5866.0
127.864550849 6056.0
127.964818438 5900.0
128.065086027 6078.0
128.165353616 6013.0
128.265621205 5985.0
128.365888794 6102.0
128.466156383 5898.0
128.566423972 6035.0
128.666691561 5890.0
128.766959150 5974.0
128.867226739 5795.0
128.967494328 5843.0
129.067761917 5899.0
129.168029506 5745.0
129.268297095 5901.0
129.368564684 5812.0
129.468832273 5985.0
129.569099862 5841.0
129.669367451 5933.0
129.769635040 6035.0
