20.050133790 938.0
20.150401379 837.0
20.250668968 903.0
20.350936557 907.0
20.451204146 935.0
20.551471735 950.0
20.651739324 900.0
20.752006913 875.0
20.852274502 967.0
20.952542091 924.0
21.052809680 961.0
21.153077269 967.0
21.253344858 1069.0
21.353612447 1189.0
21.453880036 1137.0
21.554147625 1108.0
21.654415214 1055.0
21.754682803 980.0
21.854950392 970.0
21.955217981 1050.0
22.055485570 928.0
22.155753159 1043.0
22.256020748 947.0
22.356288337 975.0
22.456555926 999.0
22.556823515 1081.0
22.657091104 995.0
22.757358693 1021.0
22.857626282 1016.0
22.957893871 1026.0
23.058161460 1007.0
23.158429049 995.0
23.258696638 1080.0
23.358964227 990.0
23.459231816 1040.0
23.559499405 1106.0
23.659766994 1040.0
23.760034582 1028.0
23.860302171 1087.0
23.960569760 1119.0
24.060837349 1115.0
24.161104938 1035.0
24.261372527 1041.0
24.361640116 1066.0
24.461907705 1068.0
24.562175294 1103.0
24.662442883 1030.0
24.762710472 982.0
24.862978061 991.0
24.963245650 1081.0
25.063513239 1045.0
25.163780828 997.0
25.264048417 1006.0
25.364316006 1004.0
25.464583595 1014.0
25.564851184 1025.0
25.665118773 1011.0
25.765386362 1063.0
25.865653951 1004.0
25.965921540 1063.0
26.066189129 1021.0
26.166456718 1088.0
26.266724307 1027.0
26.366991896 973.0
26.467259485 1025.0
26.567527074 1048.0
26.667794663 1082.0
26.768062252 1001.0
26.868329841 1008.0
26.968597430 1053.0
27.068865019 1052.0
27.169132608 1029.0
27.269400197 1016.0
27.369667786 1001.0
27.469935375 1057.0
27.570202964 1006.0
27.670470553 1087.0
27.770738142 1075.0
27.871005731 1070.0
27.971273320 1096.0
28.071540909 995.0
28.171808498 1040.0
28.272076087 1009.0
28.372343676 1086.0
28.472611265 1059.0
28.572878854 1108.0
28.673146443 1034.0
28.773414032 1087.0
28.873681621 1091.0
28.973949210 1107.0
29.074216799 1104.0
29.174484388 1089.0
29.274751977 1115.0
29.375019566 1121.0
29.475287155 1148.0
29.575554744 1124.0
29.675822333 1071.0
29.776089922 1068.0
29.876357511 1093.0
29.976625100 1050.0
30.076892689 1096.0
30.177160278 1068.0
30.277427867 1132.0
30.377695456 1120.0
30.477963045 1104.0
30.578230634 1042.0
30.678498223 1103.0
30.778765812 1033.0
30.879033401 1071.0
30.979300990 1101.0
31.079568578 1155.0
31.179836167 1202.0
31.280103756 1139.0
31.380371345 1228.0
31.480638934 1140.0
31.580906523 1161.0
31.681174112 1100.0
31.781441701 1121.0
31.881709290 1130.0
31.981976879 1103.0
32.082244468 1158.0
32.182512057 1092.0
32.282779646 1193.0
32.383047235 1058.0
32.483314824 1111.0
32.583582413 1148.0
32.683850002 1167.0
32.784117591 1130.0
32.884385180 1151.0
32.984652769 1045.0
33.084920358 1147.0
33.185187947 1184.0
33.285455536 1140.0
33.385723125 1145.0
33.485990714 1191.0
33.586258303 1193.0
33.686525892 1115.0
33.786793481 1177.0
33.887061070 1173.0
33.987328659 1175.0
34.087596248 1214.0
34.187863837 1201.0
34.288131426 1211.0
34.388399015 1264.0
34.488666604 1233.0
34.588934193 1189.0
34.689201782 1230.0
34.789469371 1214.0
34.889736960 1241.0
34.990004549 1177.0
35.090272138 1189.0
35.190539727 1142.0
35.290807316 1174.0
35.391074905 1175.0
35.491342494 1196.0
35.591610083 1214.0
35.691877672 1270.0
35.792145261 1272.0
35.892412850 1242.0
35.992680439 1245.0
36.092948028 1338.0
36.193215617 1237.0
36.293483206 1321.0
36.393750795 1359.0
36.494018384 1431.0
36.594285973 1474.0
36.694553562 1511.0
36.794821151 1597.0
36.895088740 1837.0
36.995356329 2448.0
37.095623918 3460.0
37.195891507 5861.0
37.296159096 9990.0
37.396426685 12599.0
37.496694274 7754.0
37.596961863 3698.0
37.697229452 2519.0
37.797497041 2067.0
37.897764630 1946.0
37.998032219 1600.0
38.098299808 1584.0
38.198567397 1540.0
38.298834986 1556.0
38.399102574 1572.0
38.499370163 1580.0
38.599637752 1777.0
38.699905341 1977.0
38.800172930 1919.0
38.900440519 1628.0
39.000708108 1575.0
39.100975697 1502.0
39.201243286 1517.0
39.301510875 1485.0
39.401778464 1484.0
39.502046053 1428.0
39.602313642 1512.0
39.702581231 1592.0
39.802848820 1665.0
39.903116409 1751.0
40.003383998 1970.0
40.103651587 2128.0
40.203919176 2028.0
40.304186765 2000.0
40.404454354 1981.0
40.504721943 1949.0
40.604989532 1984.0
40.705257121 2188.0
40.805524710 2284.0
40.905792299 2252.0
41.006059888 2141.0
41.106327477 2236.0
41.206595066 2299.0
41.306862655 2529.0
41.407130244 2649.0
41.507397833 2971.0
41.607665422 3399.0
41.707933011 3540.0
41.808200600 3419.0
41.908468189 3347.0
42.008735778 3248.0
42.109003367 3045.0
42.209270956 3118.0
42.309538545 3027.0
42.409806134 3118.0
42.510073723 3041.0
42.610341312 3164.0
42.710608901 3229.0
42.810876490 3316.0
42.911144079 3481.0
43.011411668 3716.0
43.111679257 4585.0
43.211946846 6265.0
43.312214435 8667.0
43.412482024 8012.0
43.512749613 5745.0
43.613017202 4093.0
43.713284791 3994.0
43.813552380 3864.0
43.913819969 3113.0
44.014087558 2474.0
44.114355147 2279.0
44.214622736 2080.0
44.314890325 1941.0
44.415157914 1921.0
44.515425503 1792.0
44.615693092 1803.0
44.715960681 1738.0
44.816228270 1739.0
44.916495859 1785.0
45.016763448 1727.0
45.117031037 1710.0
45.217298626 1672.0
45.317566215 1816.0
45.417833804 1825.0
45.518101393 1965.0
45.618368982 2034.0
45.718636570 2090.0
45.818904159 2142.0
45.919171748 2057.0
46.019439337 2122.0
46.119706926 2043.0
46.219974515 1975.0
46.320242104 1922.0
46.420509693 1969.0
46.520777282 1916.0
46.621044871 2006.0
46.721312460 2053.0
46.821580049 2053.0
46.921847638 2080.0
47.022115227 2161.0
47.122382816 2162.0
47.222650405 2197.0
47.322917994 2093.0
47.423185583 1977.0
47.523453172 2005.0
47.623720761 1920.0
47.723988350 1914.0
47.824255939 1907.0
47.924523528 1819.0
48.024791117 1840.0
48.125058706 1897.0
48.225326295 1905.0
48.325593884 1812.0
48.425861473 1905.0
48.526129062 1895.0
48.626396651 1963.0
48.726664240 1959.0
48.826931829 1889.0
48.927199418 1943.0
49.027467007 2023.0
49.127734596 2042.0
49.228002185 2036.0
49.328269774 2011.0
49.428537363 2031.0
49.528804952 1820.0
49.629072541 1895.0
49.729340130 1873.0
49.829607719 1749.0
49.929875308 1773.0
50.030142897 1751.0
50.130410486 1826.0
50.230678075 1991.0
50.330945664 1864.0
50.431213253 1957.0
50.531480842 1921.0
50.631748431 1907.0
50.732016020 1736.0
50.832283609 1702.0
50.932551198 1710.0
51.032818787 1679.0
51.133086376 1646.0
51.233353965 1718.0
51.333621554 1678.0
51.433889143 1661.0
51.534156732 1614.0
51.634424321 1619.0
51.734691910 1623.0
51.834959499 1637.0
51.935227088 1569.0
52.035494677 1660.0
52.135762266 1631.0
52.236029855 1614.0
52.336297444 1688.0
52.436565033 1813.0
52.536832622 1826.0
52.637100211 1840.0
52.737367800 1713.0
52.837635389 1724.0
52.937902978 1691.0
53.038170566 1592.0
53.138438155 1655.0
53.238705744 1709.0
53.338973333 1618.0
53.439240922 1646.0
53.539508511 1637.0
53.639776100 1619.0
53.740043689 1648.0
53.840311278 1709.0
53.940578867 1612.0
54.040846456 1714.0
54.141114045 1631.0
54.241381634 1655.0
54.341649223 1641.0
54.441916812 1648.0
54.542184401 1663.0
54.642451990 1615.0
54.742719579 1742.0
54.842987168 1650.0
54.943254757 1705.0
55.043522346 1711.0
55.143789935 1667.0
55.244057524 1719.0
55.344325113 1701.0
55.444592702 1686.0
55.544860291 1715.0
55.645127880 1763.0
55.745395469 1780.0
55.845663058 1783.0
55.945930647 1740.0
56.046198236 1764.0
56.146465825 1768.0
56.246733414 1715.0
56.347001003 1788.0
56.447268592 1776.0
56.547536181 1870.0
56.647803770 1797.0
56.748071359 1779.0
56.848338948 1745.0
56.948606537 1810.0
57.048874126 1735.0
57.149141715 1816.0
57.249409304 1908.0
57.349676893 1916.0
57.449944482 1900.0
57.550212071 1890.0
57.650479660 1980.0
57.750747249 1914.0
57.851014838 2043.0
57.951282427 2033.0
58.051550016 2060.0
58.151817605 2092.0
58.252085194 2161.0
58.352352783 2229.0
58.452620372 2401.0
58.552887961 2254.0
58.653155550 2168.0
58.753423139 2124.0
58.853690728 2096.0
58.953958317 2093.0
59.054225906 2209.0
59.154493495 2161.0
59.254761084 2216.0
59.355028673 2214.0
59.455296262 2216.0
59.555563851 2212.0
59.655831440 2146.0
59.756099029 2092.0
59.856366618 2141.0
59.956634207 2102.0
60.056901796 2201.0
60.157169385 2164.0
60.257436974 2201.0
60.357704562 2127.0
60.457972151 2022.0
60.558239740 2088.0
60.658507329 2186.0
60.758774918 2046.0
60.859042507 2105.0
60.959310096 2092.0
61.059577685 2118.0
61.159845274 2117.0
61.260112863 2145.0
61.360380452 2124.0
61.460648041 2177.0
61.560915630 2138.0
61.661183219 2148.0
61.761450808 2149.0
61.861718397 2248.0
61.961985986 2170.0
62.062253575 2114.0
62.162521164 2228.0
62.262788753 2226.0
62.363056342 2226.0
62.463323931 2169.0
62.563591520 2327.0
62.663859109 2361.0
62.764126698 2242.0
62.864394287 2294.0
62.964661876 2221.0
63.064929465 2294.0
63.165197054 2237.0
63.265464643 2124.0
63.365732232 2310.0
63.465999821 2153.0
63.566267410 2335.0
63.666534999 2210.0
63.766802588 2179.0
63.867070177 2268.0
63.967337766 2316.0
64.067605355 2347.0
64.167872944 2376.0
64.268140533 2418.0
64.368408122 2266.0
64.468675711 2321.0
64.568943300 2321.0
64.669210889 2336.0
64.769478478 2361.0
64.869746067 2316.0
64.970013656 2432.0
65.070281245 2409.0
65.170548834 2279.0
65.270816423 2514.0
65.371084012 2375.0
65.471351601 2324.0
65.571619190 2277.0
65.671886779 2412.0
65.772154368 2528.0
65.872421957 2407.0
65.972689546 2498.0
66.072957135 2445.0
66.173224724 2458.0
66.273492313 2456.0
66.373759902 2508.0
66.474027491 2560.0
66.574295080 2760.0
66.674562669 2881.0
66.774830258 3036.0
66.875097847 3508.0
66.975365436 4041.0
67.075633025 5091.0
67.175900614 5074.0
67.276168203 4497.0
67.376435792 3705.0
67.476703381 2974.0
67.576970970 2883.0
67.677238558 2663.0
67.777506147 2750.0
67.877773736 2789.0
67.978041325 2821.0
68.078308914 2691.0
68.178576503 2609.0
68.278844092 2746.0
68.379111681 2660.0
68.479379270 2776.0
68.579646859 2676.0
68.679914448 2852.0
68.780182037 2800.0
68.880449626 2764.0
68.980717215 2887.0
69.080984804 2993.0
69.181252393 2974.0
69.281519982 3034.0
69.381787571 3102.0
69.482055160 3033.0
69.582322749 3141.0
69.682590338 3193.0
69.782857927 3353.0
69.883125516 3445.0
69.983393105 3258.0
70.083660694 3150.0
70.183928283 2974.0
70.284195872 2890.0
70.384463461 2911.0
70.484731050 2842.0
70.584998639 2841.0
70.685266228 2813.0
70.785533817 2853.0
70.885801406 2874.0
70.986068995 2862.0
71.086336584 2860.0
71.186604173 2802.0
71.286871762 2945.0
71.387139351 2875.0
71.487406940 2842.0
71.587674529 2967.0
71.687942118 2968.0
71.788209707 3117.0
71.888477296 2968.0
71.988744885 3094.0
72.089012474 3051.0
72.189280063 2972.0
72.289547652 3021.0
72.389815241 3101.0
72.490082830 2981.0
72.590350419 3075.0
72.690618008 3071.0
72.790885597 3059.0
72.891153186 3020.0
72.991420775 2969.0
73.091688364 3117.0
73.191955953 3081.0
73.292223542 3091.0
73.392491131 3103.0
73.492758720 3073.0
73.593026309 3107.0
73.693293898 3156.0
73.793561487 3193.0
73.893829076 3516.0
73.994096665 3508.0
74.094364254 3454.0
74.194631843 3548.0
74.294899432 3573.0
74.395167021 3132.0
74.495434610 3256.0
74.595702199 3150.0
74.695969788 3220.0
74.796237377 3102.0
74.896504966 3028.0
74.996772554 3091.0
75.097040143 3085.0
75.197307732 3164.0
75.297575321 3178.0
75.397842910 3094.0
75.498110499 3000.0
75.598378088 3045.0
75.698645677 3165.0
75.798913266 3133.0
75.899180855 3121.0
75.999448444 3145.0
76.099716033 2994.0
76.199983622 3215.0
76.300251211 3059.0
76.400518800 3011.0
76.500786389 3218.0
76.601053978 3127.0
76.701321567 3219.0
76.801589156 3175.0
76.901856745 3187.0
77.002124334 3114.0
77.102391923 3151.0
77.202659512 3080.0
77.302927101 3167.0
77.403194690 3206.0
77.503462279 3152.0
77.603729868 3265.0
77.703997457 3156.0
77.804265046 3243.0
77.904532635 3137.0
78.004800224 3010.0
78.105067813 3208.0
78.205335402 3198.0
78.305602991 3217.0
78.405870580 3328.0
78.506138169 3353.0
78.606405758 3330.0
78.706673347 3559.0
78.806940936 3737.0
78.907208525 3963.0
79.007476114 4154.0
79.107743703 4521.0
79.208011292 5082.0
79.308278881 5677.0
79.408546470 6518.0
79.508814059 8034.0
79.609081648 8572.0
79.709349237 6951.0
79.809616826 6250.0
79.909884415 5144.0
80.010152004 4205.0
80.110419593 3659.0
80.210687182 3704.0
80.310954771 3553.0
80.411222360 3572.0
80.511489949 3723.0
80.611757538 3752.0
80.712025127 3990.0
80.812292716 3849.0
80.912560305 3675.0
81.012827894 3542.0
81.113095483 3333.0
81.213363072 3437.0
81.313630661 3259.0
81.413898250 3371.0
81.514165839 3285.0
81.614433428 3259.0
81.714701017 3139.0
81.814968606 3360.0
81.915236195 3229.0
82.015503784 3308.0
82.115771373 3358.0
82.216038962 3250.0
82.316306550 3307.0
82.416574139 3366.0
82.516841728 3311.0
82.617109317 3463.0
82.717376906 3425.0
82.817644495 3500.0
82.917912084 3554.0
83.018179673 3584.0
83.118447262 3505.0
83.218714851 3457.0
83.318982440 3340.0
83.419250029 3491.0
83.519517618 3266.0
83.619785207 3340.0
83.720052796 3349.0
83.820320385 3315.0
83.920587974 3480.0
84.020855563 3436.0
84.121123152 3492.0
84.221390741 3502.0
84.321658330 3324.0
84.421925919 3459.0
84.522193508 3339.0
84.622461097 3521.0
84.722728686 3411.0
84.822996275 3399.0
84.923263864 3348.0
85.023531453 3362.0
85.123799042 3419.0
85.224066631 3409.0
85.324334220 3314.0
85.424601809 3438.0
85.524869398 3543.0
85.625136987 3349.0
85.725404576 3408.0
85.825672165 3524.0
85.925939754 3653.0
86.026207343 3687.0
86.126474932 3674.0
86.226742521 3860.0
86.327010110 3772.0
86.427277699 3768.0
86.527545288 3614.0
86.627812877 3703.0
86.728080466 3581.0
86.828348055 3566.0
86.928615644 3510.0
87.028883233 3546.0
87.129150822 3553.0
87.229418411 3528.0
87.329686000 3418.0
87.429953589 3511.0
87.530221178 3484.0
87.630488767 3493.0
87.730756356 3546.0
87.831023945 3399.0
87.931291534 3446.0
88.031559123 3600.0
88.131826712 3521.0
88.232094301 3596.0
88.332361890 3565.0
88.432629479 3469.0
88.532897068 3476.0
88.633164657 3512.0
88.733432246 3591.0
88.833699835 3548.0
88.933967424 3624.0
89.034235013 3571.0
89.134502602 3624.0
89.234770191 3643.0
89.335037780 3737.0
89.435305369 3844.0
89.535572958 3875.0
89.635840546 3890.0
89.736108135 4018.0
89.836375724 4125.0
89.936643313 4199.0
90.036910902 3966.0
90.137178491 3960.0
90.237446080 3912.0
90.337713669 3859.0
90.437981258 3832.0
90.538248847 3956.0
90.638516436 3934.0
90.738784025 3906.0
90.839051614 3881.0
90.939319203 3943.0
91.039586792 3950.0
91.139854381 3884.0
91.240121970 3934.0
91.340389559 3837.0
91.440657148 3734.0
91.540924737 3750.0
91.641192326 3713.0
91.741459915 3835.0
91.841727504 3736.0
91.941995093 3795.0
92.042262682 3799.0
92.142530271 3773.0
92.242797860 3868.0
92.343065449 3813.0
92.443333038 3695.0
92.543600627 3730.0
92.643868216 3751.0
92.744135805 3884.0
92.844403394 3773.0
92.944670983 3820.0
93.044938572 3896.0
93.145206161 3912.0
93.245473750 3873.0
93.345741339 3869.0
93.446008928 3876.0
93.546276517 3950.0
93.646544106 3993.0
93.746811695 3899.0
93.847079284 3970.0
93.947346873 4062.0
94.047614462 4036.0
94.147882051 4273.0
94.248149640 4168.0
94.348417229 4290.0
94.448684818 4286.0
94.548952407 4413.0
94.649219996 4598.0
94.749487585 4619.0
94.849755174 4710.0
94.950022763 4725.0
95.050290352 4584.0
95.150557941 4645.0
95.250825530 4522.0
95.351093119 4341.0
95.451360708 4371.0
95.551628297 4131.0
95.651895886 3944.0
95.752163475 4092.0
95.852431064 3952.0
95.952698653 3959.0
96.052966242 3979.0
96.153233831 4096.0
96.253501420 3942.0
96.353769009 3999.0
96.454036598 3988.0
96.554304187 3993.0
96.654571776 4013.0
96.754839365 4037.0
96.855106954 4041.0
96.955374542 3947.0
97.055642131 4004.0
97.155909720 3963.0
97.256177309 4081.0
97.356444898 4044.0
97.456712487 3935.0
97.556980076 4083.0
97.657247665 4044.0
97.757515254 3946.0
97.857782843 4088.0
97.958050432 4104.0
98.058318021 4017.0
98.158585610 4013.0
98.258853199 4306.0
98.359120788 4214.0
98.459388377 4452.0
98.559655966 4205.0
98.659923555 4350.0
98.760191144 4283.0
98.860458733 4268.0
98.960726322 4268.0
99.060993911 4121.0
99.161261500 4088.0
99.261529089 4088.0
99.361796678 4071.0
99.462064267 4138.0
99.562331856 4048.0
99.662599445 4043.0
99.762867034 4115.0
99.863134623 4078.0
99.963402212 4108.0
100.063669801 4084.0
100.163937390 4085.0
100.264204979 4073.0
100.364472568 4049.0
100.464740157 4116.0
100.565007746 4033.0
100.665275335 4027.0
100.765542924 4105.0
100.865810513 4096.0
100.966078102 4061.0
101.066345691 4011.0
101.166613280 4132.0
101.266880869 4005.0
101.367148458 4164.0
101.467416047 4072.0
101.567683636 4215.0
101.667951225 4109.0
101.768218814 4036.0
101.868486403 4147.0
101.968753992 4217.0
102.069021581 4169.0
102.169289170 4133.0
102.269556759 4103.0
102.369824348 4166.0
102.470091937 4111.0
102.570359526 4163.0
102.670627115 4134.0
102.770894704 4448.0
102.871162293 4261.0
102.971429882 4276.0
103.071697471 4361.0
103.171965060 4249.0
103.272232649 4254.0
103.372500238 4096.0
103.472767827 4235.0
103.573035416 4432.0
103.673303005 4183.0
103.773570594 4259.0
103.873838183 4093.0
103.974105772 4138.0
104.074373361 4239.0
104.174640950 4303.0
104.274908538 4143.0
104.375176127 4198.0
104.475443716 4260.0
104.575711305 4177.0
104.675978894 4207.0
104.776246483 4276.0
104.876514072 4231.0
104.976781661 4227.0
105.077049250 4309.0
105.177316839 4213.0
105.277584428 4329.0
105.377852017 4398.0
105.478119606 4395.0
105.578387195 4348.0
105.678654784 4347.0
105.778922373 4451.0
105.879189962 4309.0
105.979457551 4354.0
106.079725140 4405.0
106.179992729 4342.0
106.280260318 4360.0
106.380527907 4376.0
106.480795496 4347.0
106.581063085 4473.0
106.681330674 4495.0
106.781598263 4471.0
106.881865852 4542.0
106.982133441 4494.0
107.082401030 4491.0
107.182668619 4506.0
107.282936208 4440.0
107.383203797 4576.0
107.483471386 4546.0
107.583738975 4518.0
107.684006564 4649.0
107.784274153 4573.0
107.884541742 4473.0
107.984809331 4455.0
108.085076920 4469.0
108.185344509 4561.0
108.285612098 4529.0
108.385879687 4614.0
108.486147276 4507.0
108.586414865 4492.0
108.686682454 4607.0
108.786950043 4367.0
108.887217632 4520.0
108.987485221 4532.0
109.087752810 4566.0
109.188020399 4609.0
109.288287988 4620.0
109.388555577 4375.0
109.488823166 4663.0
109.589090755 4529.0
109.689358344 4439.0
109.789625933 4504.0
109.889893522 4585.0
109.990161111 4572.0
110.090428700 4725.0
110.190696289 4504.0
110.290963878 4577.0
110.391231467 4588.0
110.491499056 4528.0
110.591766645 4538.0
110.692034234 4635.0
110.792301823 4544.0
110.892569412 4640.0
110.992837001 4654.0
111.093104590 4510.0
111.193372179 4569.0
111.293639768 4588.0
111.393907357 4743.0
111.494174946 4569.0
111.594442534 4579.0
111.694710123 4677.0
111.794977712 4503.0
111.895245301 4694.0
111.995512890 4725.0
112.095780479 4687.0
112.196048068 4554.0
112.296315657 4718.0
112.396583246 4544.0
112.496850835 4811.0
112.597118424 4642.0
112.697386013 4733.0
112.797653602 4765.0
112.897921191 4654.0
112.998188780 4774.0
113.098456369 4743.0
113.198723958 4686.0
113.298991547 4659.0
113.399259136 4750.0
113.499526725 4814.0
113.599794314 4705.0
113.700061903 4951.0
113.800329492 4870.0
113.900597081 4972.0
114.000864670 4859.0
114.101132259 4935.0
114.201399848 4996.0
114.301667437 5004.0
114.401935026 5090.0
114.502202615 5184.0
114.602470204 5151.0
114.702737793 5400.0
114.803005382 5360.0
114.903272971 5583.0
115.003540560 5647.0
115.103808149 6069.0
115.204075738 6057.0
115.304343327 5851.0
115.404610916 5744.0
115.504878505 5702.0
115.605146094 5461.0
115.705413683 5534.0
115.805681272 5435.0
115.905948861 5195.0
116.006216450 5351.0
116.106484039 5395.0
116.206751628 5202.0
116.307019217 5252.0
116.407286806 5217.0
116.507554395 5120.0
116.607821984 5274.0
116.708089573 5334.0
116.808357162 5290.0
116.908624751 5471.0
117.008892340 5559.0
117.109159929 5400.0
117.209427518 5537.0
117.309695107 5531.0
117.409962696 5666.0
117.510230285 5713.0
117.610497874 5778.0
117.710765463 5823.0
117.811033052 6240.0
117.911300641 6085.0
118.011568230 6062.0
118.111835819 5758.0
118.212103408 5706.0
118.312370997 5685.0
118.412638586 5570.0
118.512906175 5423.0
118.613173764 5314.0
118.713441353 5432.0
118.813708942 5320.0
118.913976530 5297.0
119.014244119 5282.0
119.114511708 5354.0
119.214779297 5291.0
119.315046886 5294.0
119.415314475 5250.0
119.515582064 5150.0
119.615849653 5257.0
119.716117242 5432.0
119.816384831 5380.0
119.916652420 5339.0
120.016920009 5361.0
120.117187598 5250.0
120.217455187 5446.0
120.317722776 5439.0
120.417990365 5496.0
120.518257954 5464.0
120.618525543 5301.0
120.718793132 5540.0
120.819060721 5473.0
120.919328310 5388.0
121.019595899 5500.0
121.119863488 5517.0
121.220131077 5443.0
121.320398666 5367.0
121.420666255 5371.0
121.520933844 5431.0
121.621201433 5358.0
121.721469022 5561.0
121.821736611 5493.0
121.922004200 5519.0
122.022271789 5361.0
122.122539378 5481.0
122.222806967 5297.0
122.323074556 5457.0
122.423342145 5425.0
122.523609734 5384.0
122.623877323 5403.0
122.724144912 5365.0
122.824412501 5499.0
122.924680090 5351.0
123.024947679 5514.0
123.125215268 5559.0
123.225482857 5386.0
123.325750446 5336.0
123.426018035 5317.0
123.526285624 5284.0
123.626553213 5334.0
123.726820802 5183.0
123.827088391 5268.0
123.927355980 5343.0
124.027623569 5407.0
124.127891158 5455.0
124.228158747 5371.0
124.328426336 5367.0
124.428693925 5387.0
124.528961514 5455.0
124.629229103 5360.0
124.729496692 5361.0
124.829764281 5439.0
124.930031870 5524.0
125.030299459 5522.0
125.130567048 5397.0
125.230834637 5447.0
125.331102226 5580.0
125.431369815 5438.0
125.531637404 5509.0
125.631904993 5428.0
125.732172582 5570.0
125.832440171 5472.0
125.932707760 5450.0
126.032975349 5434.0
126.133242938 5507.0
126.233510526 5467.0
126.333778115 5465.0
126.434045704 5523.0
126.534313293 5500.0
126.634580882 5365.0
126.734848471 5452.0
126.835116060 5389.0
126.935383649 5457.0
127.035651238 5416.0
127.135918827 5485.0
127.236186416 5504.0
127.336454005 5585.0
127.436721594 5510.0
127.536989183 5507.0
127.637256772 5486.0
127.737524361 5469.0
127.837791950 5685.0
127.938059539 5618.0
128.038327128 5463.0
128.138594717 5717.0
128.238862306 5540.0
128.339129895 5632.0
128.439397484 5596.0
128.539665073 5535.0
128.639932662 5602.0
128.740200251 5383.0
128.840467840 5589.0
128.940735429 5571.0
129.041003018 5470.0
129.141270607 5504.0
129.241538196 5441.0
129.341805785 5641.0
129.442073374 5619.0
129.542340963 5707.0
129.642608552 5594.0
129.742876141 5558.0
129.843143730 5729.0
