20.282200670 673.0
20.432602006 654.0
20.583003341 708.0
20.733404677 662.0
20.883806012 693.0
21.034207348 689.0
21.184608683 684.0
21.335010019 665.0
21.485411354 697.0
21.635812690 660.0
21.786214025 676.0
21.936615361 654.0
22.087016696 632.0
22.237418032 626.0
22.387819367 624.0
22.538220703 635.0
22.688622038 649.0
22.839023374 605.0
22.989424709 659.0
23.139826045 620.0
23.290227380 671.0
23.440628716 645.0
23.591030051 622.0
23.741431387 669.0
23.891832722 592.0
24.042234058 665.0
24.192635393 639.0
24.343036729 648.0
24.493438064 573.0
24.643839400 600.0
24.794240735 659.0
24.944642071 640.0
25.095043406 661.0
25.245444742 630.0
25.395846077 647.0
25.546247413 683.0
25.696648748 630.0
25.847050084 607.0
25.997451419 566.0
26.147852755 605.0
26.298254090 654.0
26.448655426 619.0
26.599056761 601.0
26.749458097 570.0
26.899859432 591.0
27.050260768 630.0
27.200662103 627.0
27.351063439 612.0
27.501464774 579.0
27.651866110 661.0
27.802267445 603.0
27.952668781 574.0
28.103070116 608.0
28.253471452 603.0
28.403872787 602.0
28.554274123 617.0
28.704675458 559.0
28.855076794 557.0
29.005478129 539.0
29.155879465 571.0
29.306280800 598.0
29.456682136 597.0
29.607083471 570.0
29.757484807 571.0
29.907886142 556.0
30.058287478 576.0
30.208688813 594.0
30.359090149 545.0
30.509491484 587.0
30.659892820 512.0
30.810294155 563.0
30.960695491 604.0
31.111096826 620.0
31.261498162 622.0
31.411899497 635.0
31.562300833 676.0
31.712702168 661.0
31.863103504 631.0
32.013504839 559.0
32.163906175 611.0
32.314307510 576.0
32.464708846 565.0
32.615110181 552.0
32.765511517 558.0
32.915912852 633.0
33.066314188 669.0
33.216715523 737.0
33.367116859 813.0
33.517518194 809.0
33.667919530 689.0
33.818320865 635.0
33.968722201 648.0
34.119123536 649.0
34.269524872 610.0
34.419926207 617.0
34.570327543 613.0
34.720728878 624.0
34.871130214 726.0
35.021531549 642.0
35.171932885 720.0
35.322334220 767.0
35.472735556 764.0
35.623136891 876.0
35.773538227 834.0
35.923939562 757.0
36.074340898 787.0
36.224742233 811.0
36.375143569 991.0
36.525544904 1524.0
36.675946240 993.0
36.826347575 780.0
36.976748911 841.0
37.127150246 897.0
37.277551582 982.0
37.427952917 1130.0
37.578354253 1425.0
37.728755588 2142.0
37.879156924 3508.0
38.029558259 3599.0
38.179959595 2786.0
38.330360930 3598.0
38.480762266 5719.0
38.631163601 9887.0
38.781564937 16589.0
38.931966272 22097.0
39.082367608 19362.0
39.232768943 9894.0
39.383170279 5227.0
39.533571614 3599.0
39.683972950 2432.0
39.834374285 1979.0
39.984775621 1726.0
40.135176956 1741.0
40.285578292 1649.0
40.435979627 1237.0
40.586380963 1009.0
40.736782298 905.0
40.887183634 886.0
41.037584969 843.0
41.187986305 946.0
41.338387640 1329.0
41.488788976 2169.0
41.639190311 1288.0
41.789591647 800.0
41.939992982 692.0
42.090394318 703.0
42.240795653 720.0
42.391196989 711.0
42.541598324 656.0
42.691999660 645.0
42.842400995 666.0
42.992802331 634.0
43.143203666 626.0
43.293605002 682.0
43.444006337 705.0
43.594407673 677.0
43.744809008 664.0
43.895210344 674.0
44.045611679 702.0
44.196013015 700.0
44.346414350 655.0
44.496815686 633.0
44.647217021 591.0
44.797618357 621.0
44.948019692 574.0
45.098421028 550.0
45.248822363 552.0
45.399223699 579.0
45.549625034 575.0
45.700026370 579.0
45.850427705 637.0
46.000829041 694.0
46.151230376 639.0
46.301631712 631.0
46.452033047 577.0
46.602434383 605.0
46.752835718 587.0
46.903237054 611.0
47.053638389 551.0
47.204039725 544.0
47.354441060 561.0
47.504842396 544.0
47.655243731 563.0
47.805645067 530.0
47.956046402 588.0
48.106447738 569.0
48.256849073 555.0
48.407250409 538.0
48.557651744 604.0
48.708053080 638.0
48.858454415 578.0
49.008855751 588.0
49.159257086 591.0
49.309658422 558.0
49.460059757 571.0
49.610461093 574.0
49.760862428 522.0
49.911263764 554.0
50.061665099 520.0
50.212066435 602.0
50.362467770 547.0
50.512869106 578.0
50.663270441 554.0
50.813671777 620.0
50.964073112 617.0
51.114474448 586.0
51.264875783 678.0
51.415277119 678.0
51.565678454 620.0
51.716079790 597.0
51.866481125 550.0
52.016882461 557.0
52.167283796 573.0
52.317685132 599.0
52.468086467 521.0
52.618487803 547.0
52.768889138 589.0
52.919290474 635.0
53.069691809 697.0
53.220093145 630.0
53.370494480 580.0
53.520895816 612.0
53.671297151 603.0
53.821698487 590.0
53.972099822 621.0
54.122501158 623.0
54.272902493 633.0
54.423303829 653.0
54.573705164 690.0
54.724106500 776.0
54.874507835 788.0
55.024909171 826.0
55.175310506 922.0
55.325711842 1127.0
55.476113177 1359.0
55.626514513 1597.0
55.776915848 2020.0
55.927317184 2378.0
56.077718519 2968.0
56.228119855 3385.0
56.378521190 3151.0
56.528922526 2435.0
56.679323861 1549.0
56.829725197 1166.0
56.980126532 1005.0
57.130527868 992.0
57.280929203 981.0
57.431330539 1036.0
57.581731874 971.0
57.732133210 880.0
57.882534545 831.0
58.032935881 839.0
58.183337216 844.0
58.333738552 856.0
58.484139887 788.0
58.634541223 831.0
58.784942558 856.0
58.935343894 798.0
59.085745229 877.0
59.236146565 896.0
59.386547900 944.0
59.536949236 889.0
59.687350571 1011.0
59.837751907 1116.0
59.988153242 1055.0
60.138554578 980.0
60.288955913 959.0
60.439357249 936.0
60.589758584 951.0
60.740159920 982.0
60.890561255 981.0
61.040962591 1002.0
61.191363926 1020.0
61.341765262 1113.0
61.492166597 1227.0
61.642567933 1257.0
61.792969268 1391.0
61.943370604 1403.0
62.093771939 1250.0
62.244173275 1078.0
62.394574610 1089.0
62.544975946 1174.0
62.695377281 1141.0
62.845778617 1152.0
62.996179952 1176.0
63.146581288 1185.0
63.296982623 1278.0
63.447383959 1425.0
63.597785294 1594.0
63.748186630 1707.0
63.898587965 2112.0
64.048989301 3116.0
64.199390636 3493.0
64.349791972 2334.0
64.500193307 1515.0
64.650594643 1433.0
64.800995978 1401.0
64.951397314 1379.0
65.101798649 1437.0
65.252199985 1515.0
65.402601320 1587.0
65.553002656 1692.0
65.703403991 1541.0
65.853805327 1358.0
66.004206662 1320.0
66.154607998 1455.0
66.305009333 1317.0
66.455410669 1313.0
66.605812004 1323.0
66.756213340 1392.0
66.906614675 1487.0
67.057016011 1588.0
67.207417346 1989.0
67.357818682 2123.0
67.508220017 1942.0
67.658621353 1572.0
67.809022688 1598.0
67.959424024 1675.0
68.109825359 1604.0
68.260226695 1559.0
68.410628030 1590.0
68.561029366 1621.0
68.711430701 1770.0
68.861832037 1814.0
69.012233372 1906.0
69.162634708 2075.0
69.313036043 2320.0
69.463437379 2593.0
69.613838714 2938.0
69.764240050 3457.0
69.914641385 4327.0
70.065042721 5034.0
70.215444056 5966.0
70.365845392 6916.0
70.516246727 7576.0
70.666648063 7397.0
70.817049398 6173.0
70.967450734 4470.0
71.117852069 3069.0
71.268253405 2406.0
71.418654740 2100.0
71.569056076 2084.0
71.719457411 1924.0
71.869858747 1812.0
72.020260082 1812.0
72.170661418 1779.0
72.321062753 1640.0
72.471464089 1713.0
72.621865424 1685.0
72.772266760 1684.0
72.922668095 1589.0
73.073069431 1614.0
73.223470766 1706.0
73.373872102 1714.0
73.524273437 1634.0
73.674674773 1628.0
73.825076108 1629.0
73.975477444 1667.0
74.125878779 1697.0
74.276280115 1711.0
74.426681450 1673.0
74.577082786 1711.0
74.727484121 1701.0
74.877885457 1712.0
75.028286792 1681.0
75.178688128 1769.0
75.329089463 1623.0
75.479490799 1706.0
75.629892134 1777.0
75.780293470 1756.0
75.930694805 1747.0
76.081096141 1813.0
76.231497476 1818.0
76.381898812 1809.0
76.532300147 1914.0
76.682701483 2059.0
76.833102818 2371.0
76.983504154 2696.0
77.133905489 2489.0
77.284306825 2272.0
77.434708160 1916.0
77.585109496 2042.0
77.735510831 2027.0
77.885912167 1965.0
78.036313502 1824.0
78.186714838 1788.0
78.337116173 1811.0
78.487517509 1847.0
78.637918844 1796.0
78.788320180 1838.0
78.938721515 1876.0
79.089122851 1996.0
79.239524186 2082.0
79.389925522 2046.0
79.540326857 2124.0
79.690728193 2067.0
79.841129528 2130.0
79.991530864 2183.0
80.141932199 2105.0
80.292333535 2001.0
80.442734870 2198.0
80.593136206 2310.0
80.743537541 2275.0
80.893938877 2292.0
81.044340212 2284.0
81.194741548 2217.0
81.345142883 2213.0
81.495544219 2196.0
81.645945554 2139.0
81.796346890 2334.0
81.946748225 2498.0
82.097149561 2409.0
82.247550896 2486.0
82.397952232 2588.0
82.548353567 2478.0
82.698754903 2706.0
82.849156238 2994.0
82.999557574 3348.0
83.149958909 3789.0
83.300360245 4218.0
83.450761580 4586.0
83.601162916 4872.0
83.751564251 4890.0
83.901965587 4593.0
84.052366922 3883.0
84.202768258 3314.0
84.353169593 2874.0
84.503570929 2515.0
84.653972264 2365.0
84.804373600 2384.0
84.954774935 2274.0
85.105176271 2402.0
85.255577606 2290.0
85.405978942 2205.0
85.556380277 2204.0
85.706781613 2067.0
85.857182948 2150.0
86.007584284 2089.0
86.157985619 2154.0
86.308386955 2146.0
86.458788290 2139.0
86.609189626 2107.0
86.759590961 2183.0
86.909992297 2234.0
87.060393632 2090.0
87.210794968 2196.0
87.361196303 2130.0
87.511597639 2158.0
87.661998974 2099.0
87.812400310 2226.0
87.962801645 2159.0
88.113202981 2285.0
88.263604316 2226.0
88.414005652 2095.0
88.564406987 2098.0
88.714808323 2110.0
88.865209658 2190.0
89.015610994 2155.0
89.166012329 2239.0
89.316413665 2123.0
89.466815000 2207.0
89.617216336 2297.0
89.767617671 2193.0
89.918019007 2145.0
90.068420342 2256.0
90.218821678 2188.0
90.369223013 2148.0
90.519624349 2144.0
90.670025684 2280.0
90.820427020 2342.0
90.970828355 2285.0
91.121229691 2386.0
91.271631026 2365.0
91.422032362 2343.0
91.572433697 2456.0
91.722835033 2458.0
91.873236368 2365.0
92.023637704 2412.0
92.174039039 2407.0
92.324440375 2412.0
92.474841710 2334.0
92.625243046 2258.0
92.775644381 2481.0
92.926045717 2405.0
93.076447052 2450.0
93.226848388 2497.0
93.377249723 2498.0
93.527651059 2616.0
93.678052394 2589.0
93.828453730 2588.0
93.978855065 2679.0
94.129256401 2592.0
94.279657736 2658.0
94.430059072 2694.0
94.580460407 2734.0
94.730861743 2807.0
94.881263078 3006.0
95.031664414 3032.0
95.182065749 3015.0
95.332467085 3299.0
95.482868420 3449.0
95.633269756 3755.0
95.783671091 3888.0
95.934072427 4243.0
96.084473762 4608.0
96.234875098 5202.0
96.385276433 5593.0
96.535677769 5594.0
96.686079104 5584.0
96.836480440 5033.0
96.986881775 4524.0
97.137283111 3871.0
97.287684446 3417.0
97.438085782 3037.0
97.588487117 2983.0
97.738888453 2771.0
97.889289788 2809.0
98.039691124 2745.0
98.190092459 2784.0
98.340493795 2889.0
98.490895130 3150.0
98.641296466 3389.0
98.791697801 3249.0
98.942099137 3203.0
99.092500472 3109.0
99.242901808 2974.0
99.393303143 2916.0
99.543704479 2817.0
99.694105814 2929.0
99.844507150 2810.0
99.994908485 2722.0
100.145309821 2831.0
100.295711156 2961.0
100.446112492 2823.0
100.596513827 3019.0
100.746915163 3228.0
100.897316498 3427.0
101.047717834 3500.0
101.198119169 3336.0
101.348520505 3242.0
101.498921840 2973.0
101.649323176 2858.0
101.799724511 2851.0
101.950125847 2915.0
102.100527182 2934.0
102.250928518 3037.0
102.401329853 2913.0
102.551731189 3071.0
102.702132524 3075.0
102.852533860 3150.0
103.002935195 3050.0
103.153336531 3107.0
103.303737866 2977.0
103.454139202 3094.0
103.604540537 2920.0
103.754941873 2954.0
103.905343208 2968.0
104.055744544 2810.0
104.206145879 2909.0
104.356547215 2993.0
104.506948550 3057.0
104.657349886 2986.0
104.807751221 2920.0
104.958152557 2905.0
105.108553892 3036.0
105.258955228 3046.0
105.409356563 3087.0
105.559757899 3037.0
105.710159234 3203.0
105.860560570 3105.0
106.010961905 3291.0
106.161363241 3391.0
106.311764576 3152.0
106.462165912 3209.0
106.612567247 3184.0
106.762968583 3016.0
106.913369918 3161.0
107.063771254 3145.0
107.214172589 3258.0
107.364573925 3097.0
107.514975260 3233.0
107.665376596 3266.0
107.815777931 3247.0
107.966179267 3424.0
108.116580602 3402.0
108.266981938 3451.0
108.417383273 3545.0
108.567784609 3612.0
108.718185944 3665.0
108.868587280 3838.0
109.018988615 3982.0
109.169389951 4027.0
109.319791286 4098.0
109.470192622 4306.0
109.620593957 4522.0
109.770995293 4692.0
109.921396628 4491.0
110.071797964 4252.0
110.222199299 3907.0
110.372600635 3820.0
110.523001970 3661.0
110.673403306 3534.0
110.823804641 3341.0
110.974205977 3337.0
111.124607312 3313.0
111.275008648 3381.0
111.425409983 3461.0
111.575811319 3367.0
111.726212654 3392.0
111.876613990 3384.0
112.027015325 3373.0
112.177416661 3371.0
112.327817996 3385.0
112.478219332 3470.0
112.628620667 3439.0
112.779022003 3459.0
112.929423338 3666.0
113.079824674 3749.0
113.230226009 3782.0
113.380627345 3859.0
113.531028680 4054.0
113.681430016 4153.0
113.831831351 4069.0
113.982232687 3827.0
114.132634022 3958.0
114.283035358 3774.0
114.433436693 3813.0
114.583838029 3692.0
114.734239364 3694.0
114.884640700 3719.0
115.035042035 3652.0
115.185443371 3737.0
115.335844706 3707.0
115.486246042 3679.0
115.636647377 3646.0
115.787048713 3752.0
115.937450048 3780.0
116.087851384 3689.0
116.238252719 3770.0
116.388654055 3768.0
116.539055390 3680.0
116.689456726 3863.0
116.839858061 3821.0
116.990259397 3737.0
117.140660732 3790.0
117.291062068 3916.0
117.441463403 3787.0
117.591864739 3804.0
117.742266074 4024.0
117.892667410 3907.0
118.043068745 3912.0
118.193470081 3910.0
118.343871416 3959.0
118.494272752 3989.0
118.644674087 4044.0
118.795075423 3959.0
118.945476758 3956.0
119.095878094 4098.0
119.246279429 4205.0
119.396680765 4156.0
119.547082100 4198.0
119.697483436 4203.0
119.847884771 4179.0
119.998286107 4215.0
120.148687442 4511.0
120.299088778 4359.0
120.449490113 4522.0
120.599891449 4535.0
120.750292784 4559.0
120.900694120 4622.0
121.051095455 4584.0
121.201496791 4819.0
121.351898126 4763.0
121.502299462 4793.0
121.652700797 5049.0
121.803102133 5104.0
121.953503468 5315.0
122.103904804 5447.0
122.254306139 5661.0
122.404707475 5738.0
122.555108810 6221.0
122.705510146 6569.0
122.855911481 6675.0
123.006312817 7185.0
123.156714152 7685.0
123.307115488 8237.0
123.457516823 8728.0
123.607918159 9285.0
123.758319494 10049.0
123.908720830 10388.0
124.059122165 10600.0
124.209523501 10994.0
124.359924836 10566.0
124.510326172 9541.0
124.660727507 8146.0
124.811128843 7431.0
124.961530178 6897.0
125.111931514 5947.0
125.262332849 5513.0
125.412734185 5217.0
125.563135520 4710.0
125.713536856 4688.0
125.863938191 4746.0
126.014339527 4808.0
126.164740862 4769.0
126.315142198 4739.0
126.465543533 4860.0
126.615944869 4827.0
126.766346204 4881.0
126.916747540 4978.0
127.067148875 4891.0
127.217550211 4920.0
127.367951546 4873.0
127.518352882 4792.0
127.668754217 4786.0
127.819155553 4900.0
127.969556888 4646.0
128.119958224 4737.0
128.270359559 4855.0
128.420760895 4854.0
128.571162230 4625.0
128.721563566 4740.0
128.871964901 4852.0
129.022366237 4829.0
129.172767572 4689.0
129.323168908 4779.0
129.473570243 4720.0
129.623971579 4930.0
129.774372914 4702.0
129.924774250 4817.0
