20.050133790 758.0
20.150401379 788.0
20.250668968 822.0
20.350936557 813.0
20.451204146 816.0
20.551471735 823.0
20.651739324 845.0
20.752006913 806.0
20.852274502 873.0
20.952542091 794.0
21.052809680 787.0
21.153077269 791.0
21.253344858 781.0
21.353612447 800.0
21.453880036 809.0
21.554147625 800.0
21.654415214 822.0
21.754682803 807.0
21.854950392 800.0
21.955217981 826.0
22.055485570 886.0
22.155753159 848.0
22.256020748 783.0
22.356288337 839.0
22.456555926 852.0
22.556823515 832.0
22.657091104 821.0
22.757358693 832.0
22.857626282 797.0
22.957893871 807.0
23.058161460 802.0
23.158429049 820.0
23.258696638 817.0
23.358964227 820.0
23.459231816 825.0
23.559499405 828.0
23.659766994 824.0
23.760034583 808.0
23.860302172 847.0
23.960569761 822.0
24.060837350 820.0
24.161104939 829.0
24.261372528 850.0
24.361640117 785.0
24.461907706 863.0
24.562175295 870.0
24.662442884 783.0
24.762710473 804.0
24.862978062 842.0
24.963245651 815.0
25.063513240 824.0
25.163780829 812.0
25.264048418 838.0
25.364316007 850.0
25.464583596 812.0
25.564851185 789.0
25.665118774 824.0
25.765386363 801.0
25.865653952 809.0
25.965921541 846.0
26.066189130 858.0
26.166456719 888.0
26.266724308 832.0
26.366991897 834.0
26.467259486 808.0
26.567527075 802.0
26.667794664 812.0
26.768062253 848.0
26.868329842 819.0
26.968597431 803.0
27.068865020 885.0
27.169132609 865.0
27.269400198 816.0
27.369667787 783.0
27.469935376 845.0
27.570202965 844.0
27.670470554 840.0
27.770738143 840.0
27.871005732 873.0
27.971273321 923.0
28.071540910 927.0
28.171808499 847.0
28.272076088 874.0
28.372343676 904.0
28.472611265 865.0
28.572878854 927.0
28.673146443 868.0
28.773414032 921.0
28.873681621 946.0
28.973949210 942.0
29.074216799 995.0
29.174484388 1049.0
29.274751977 980.0
29.375019566 1085.0
29.475287155 1127.0
29.575554744 1202.0
29.675822333 1264.0
29.776089922 1283.0
29.876357511 1231.0
29.976625100 1189.0
30.076892689 1146.0
30.177160278 1084.0
30.277427867 978.0
30.377695456 1001.0
30.477963045 887.0
30.578230634 938.0
30.678498223 911.0
30.778765812 923.0
30.879033401 901.0
30.979300990 892.0
31.079568579 835.0
31.179836168 865.0
31.280103757 845.0
31.380371346 850.0
31.480638935 861.0
31.580906524 923.0
31.681174113 808.0
31.781441702 826.0
31.881709291 849.0
31.981976880 913.0
32.082244469 895.0
32.182512058 898.0
32.282779647 879.0
32.383047236 906.0
32.483314825 888.0
32.583582414 846.0
32.683850003 836.0
32.784117592 910.0
32.884385181 918.0
32.984652770 837.0
33.084920359 867.0
33.185187948 882.0
33.285455537 922.0
33.385723126 863.0
33.485990715 835.0
33.586258304 932.0
33.686525893 898.0
33.786793482 897.0
33.887061071 891.0
33.987328660 859.0
34.087596249 909.0
34.187863838 879.0
34.288131427 860.0
34.388399016 912.0
34.488666605 886.0
34.588934194 912.0
34.689201783 860.0
34.789469372 877.0
34.889736961 888.0
34.990004550 897.0
35.090272139 850.0
35.190539728 943.0
35.290807317 889.0
35.391074906 937.0
35.491342495 961.0
35.591610084 897.0
35.691877673 929.0
35.792145262 969.0
35.892412851 922.0
35.992680440 899.0
36.092948029 969.0
36.193215618 906.0
36.293483207 919.0
36.393750796 948.0
36.494018385 965.0
36.594285974 938.0
36.694553563 961.0
36.794821152 985.0
36.895088741 946.0
36.995356330 921.0
37.095623919 927.0
37.195891508 989.0
37.296159097 940.0
37.396426686 936.0
37.496694275 937.0
37.596961864 981.0
37.697229453 1000.0
37.797497042 1011.0
37.897764631 1025.0
37.998032220 1012.0
38.098299809 1106.0
38.198567398 1118.0
38.298834987 1100.0
38.399102576 1117.0
38.499370165 1251.0
38.599637754 1168.0
38.699905343 1084.0
38.800172932 1085.0
38.900440521 1017.0
39.000708110 1067.0
39.100975699 1070.0
39.201243288 1096.0
39.301510877 1088.0
39.401778466 1094.0
39.502046055 965.0
39.602313644 1065.0
39.702581233 1019.0
39.802848822 1058.0
39.903116411 1090.0
40.003384000 1039.0
40.103651589 1020.0
40.203919178 1206.0
40.304186767 1228.0
40.404454356 1197.0
40.504721945 1247.0
40.604989534 1312.0
40.705257123 1344.0
40.805524712 1456.0
40.905792301 1690.0
41.006059890 1809.0
41.106327479 2026.0
41.206595068 2183.0
41.306862657 2486.0
41.407130246 2766.0
41.507397835 2991.0
41.607665424 3155.0
41.707933013 3327.0
41.808200602 3555.0
41.908468191 4086.0
42.008735780 4903.0
42.109003369 5546.0
42.209270958 7039.0
42.309538547 9019.0
42.409806136 12448.0
42.510073725 18746.0
42.610341314 29495.0
42.710608903 43773.0
42.810876492 51801.0
42.911144081 42445.0
43.011411670 24909.0
43.111679259 13503.0
43.211946848 7955.0
43.312214437 5338.0
43.412482026 3941.0
43.512749615 3176.0
43.613017204 2674.0
43.713284793 2360.0
43.813552382 2137.0
43.913819971 1931.0
44.014087560 1842.0
44.114355149 1808.0
44.214622738 1740.0
44.314890327 1617.0
44.415157916 1591.0
44.515425505 1573.0
44.615693094 1477.0
44.715960683 1497.0
44.816228272 1525.0
44.916495861 1411.0
45.016763449 1436.0
45.117031038 1378.0
45.217298627 1334.0
45.317566216 1385.0
45.417833805 1392.0
45.518101394 1331.0
45.618368983 1417.0
45.718636572 1387.0
45.818904161 1319.0
45.919171750 1285.0
46.019439339 1331.0
46.119706928 1344.0
46.219974517 1282.0
46.320242106 1324.0
46.420509695 1327.0
46.520777284 1397.0
46.621044873 1374.0
46.721312462 1378.0
46.821580051 1406.0
46.921847640 1512.0
47.022115229 1468.0
47.122382818 1512.0
47.222650407 1438.0
47.322917996 1351.0
47.423185585 1396.0
47.523453174 1433.0
47.623720763 1325.0
47.723988352 1417.0
47.824255941 1292.0
47.924523530 1382.0
48.024791119 1486.0
48.125058708 1442.0
48.225326297 1399.0
48.325593886 1404.0
48.425861475 1332.0
48.526129064 1256.0
48.626396653 1243.0
48.726664242 1254.0
48.826931831 1206.0
48.927199420 1136.0
49.027467009 1217.0
49.127734598 1183.0
49.228002187 1128.0
49.328269776 1170.0
49.428537365 1130.0
49.528804954 1126.0
49.629072543 1170.0
49.729340132 1184.0
49.829607721 1134.0
49.929875310 1204.0
50.030142899 1080.0
50.130410488 1143.0
50.230678077 1177.0
50.330945666 1198.0
50.431213255 1105.0
50.531480844 1135.0
50.631748433 1152.0
50.732016022 1105.0
50.832283611 1209.0
50.932551200 1162.0
51.032818789 1164.0
51.133086378 1141.0
51.233353967 1180.0
51.333621556 1146.0
51.433889145 1146.0
51.534156734 1162.0
51.634424323 1259.0
51.734691912 1195.0
51.834959501 1081.0
51.935227090 1195.0
52.035494679 1146.0
52.135762268 1240.0
52.236029857 1164.0
52.336297446 1251.0
52.436565035 1195.0
52.536832624 1247.0
52.637100213 1255.0
52.737367802 1243.0
52.837635391 1301.0
52.937902980 1445.0
53.038170569 1689.0
53.138438158 1754.0
53.238705747 1702.0
53.338973336 1466.0
53.439240925 1321.0
53.539508514 1254.0
53.639776103 1251.0
53.740043692 1164.0
53.840311281 1235.0
53.940578870 1181.0
54.040846459 1193.0
54.141114048 1226.0
54.241381637 1173.0
54.341649226 1174.0
54.441916815 1193.0
54.542184404 1159.0
54.642451993 1226.0
54.742719582 1219.0
54.842987171 1230.0
54.943254760 1153.0
55.043522349 1223.0
55.143789938 1263.0
55.244057527 1238.0
55.344325116 1172.0
55.444592705 1225.0
55.544860294 1261.0
55.645127883 1230.0
55.745395472 1283.0
55.845663061 1293.0
55.945930650 1314.0
56.046198239 1293.0
56.146465828 1307.0
56.246733417 1291.0
56.347001006 1307.0
56.447268595 1275.0
56.547536184 1324.0
56.647803773 1317.0
56.748071362 1372.0
56.848338951 1433.0
56.948606540 1484.0
57.048874129 1384.0
57.149141718 1536.0
57.249409307 1429.0
57.349676896 1398.0
57.449944485 1419.0
57.550212074 1414.0
57.650479663 1419.0
57.750747252 1391.0
57.851014841 1356.0
57.951282430 1435.0
58.051550019 1435.0
58.151817608 1430.0
58.252085197 1392.0
58.352352786 1460.0
58.452620375 1551.0
58.552887964 1472.0
58.653155553 1397.0
58.753423142 1498.0
58.853690731 1518.0
58.953958320 1571.0
59.054225909 1595.0
59.154493498 1540.0
59.254761087 1619.0
59.355028676 1547.0
59.455296265 1542.0
59.555563854 1580.0
59.655831443 1680.0
59.756099032 1585.0
59.856366621 1616.0
59.956634210 1630.0
60.056901799 1761.0
60.157169388 1847.0
60.257436977 1805.0
60.357704566 1895.0
60.457972155 1883.0
60.558239744 1924.0
60.658507333 1837.0
60.758774922 1890.0
60.859042511 1964.0
60.959310100 1958.0
61.059577689 2020.0
61.159845278 2107.0
61.260112867 2076.0
61.360380456 2193.0
61.460648045 2158.0
61.560915634 2235.0
61.661183222 2235.0
61.761450811 2288.0
61.861718400 2304.0
61.961985989 2357.0
62.062253578 2373.0
62.162521167 2387.0
62.262788756 2294.0
62.363056345 2248.0
62.463323934 2234.0
62.563591523 2224.0
62.663859112 2074.0
62.764126701 2097.0
62.864394290 1884.0
62.964661879 1995.0
63.064929468 1947.0
63.165197057 1874.0
63.265464646 1797.0
63.365732235 1839.0
63.465999824 1848.0
63.566267413 1897.0
63.666535002 1872.0
63.766802591 1845.0
63.867070180 1773.0
63.967337769 1861.0
64.067605358 1876.0
64.167872947 1940.0
64.268140536 1828.0
64.368408125 1890.0
64.468675714 1843.0
64.568943303 1810.0
64.669210892 1867.0
64.769478481 1870.0
64.869746070 1803.0
64.970013659 1756.0
65.070281248 1889.0
65.170548837 1924.0
65.270816426 1999.0
65.371084015 1895.0
65.471351604 1788.0
65.571619193 1894.0
65.671886782 1906.0
65.772154371 1884.0
65.872421960 1882.0
65.972689549 1856.0
66.072957138 1873.0
66.173224727 1989.0
66.273492316 1914.0
66.373759905 1837.0
66.474027494 1842.0
66.574295083 1967.0
66.674562672 1932.0
66.774830261 1846.0
66.875097850 1884.0
66.975365439 1935.0
67.075633028 1970.0
67.175900617 1893.0
67.276168206 1992.0
67.376435795 2068.0
67.476703384 2021.0
67.576970973 1960.0
67.677238562 1876.0
67.777506151 1892.0
67.877773740 1979.0
67.978041329 1947.0
68.078308918 1895.0
68.178576507 2040.0
68.278844096 2050.0
68.379111685 2112.0
68.479379274 2073.0
68.579646863 2092.0
68.679914452 2124.0
68.780182041 2109.0
68.880449630 2137.0
68.980717219 2030.0
69.080984808 2095.0
69.181252397 2130.0
69.281519986 2203.0
69.381787575 2162.0
69.482055164 2273.0
69.582322753 2296.0
69.682590342 2410.0
69.782857931 2334.0
69.883125520 2432.0
69.983393109 2500.0
70.083660698 2405.0
70.183928287 2503.0
70.284195876 2535.0
70.384463465 2487.0
70.484731054 2525.0
70.584998643 2464.0
70.685266232 2380.0
70.785533821 2493.0
70.885801410 2346.0
70.986068999 2276.0
71.086336588 2301.0
71.186604177 2296.0
71.286871766 2234.0
71.387139355 2131.0
71.487406944 2175.0
71.587674533 2231.0
71.687942122 2212.0
71.788209711 2212.0
71.888477300 2163.0
71.988744889 2234.0
72.089012478 2265.0
72.189280067 2278.0
72.289547656 2200.0
72.389815245 2207.0
72.490082834 2220.0
72.590350423 2237.0
72.690618012 2105.0
72.790885601 2216.0
72.891153190 2207.0
72.991420779 2212.0
73.091688368 2253.0
73.191955957 2182.0
73.292223546 2230.0
73.392491135 2290.0
73.492758724 2225.0
73.593026313 2215.0
73.693293902 2239.0
73.793561491 2230.0
73.893829080 2276.0
73.994096669 2243.0
74.094364258 2235.0
74.194631847 2306.0
74.294899436 2238.0
74.395167025 2269.0
74.495434614 2301.0
74.595702203 2246.0
74.695969792 2237.0
74.796237381 2345.0
74.896504970 2273.0
74.996772559 2302.0
75.097040148 2366.0
75.197307737 2276.0
75.297575326 2403.0
75.397842915 2424.0
75.498110504 2284.0
75.598378093 2394.0
75.698645682 2433.0
75.798913271 2374.0
75.899180860 2399.0
75.999448449 2384.0
76.099716038 2375.0
76.199983627 2410.0
76.300251216 2418.0
76.400518805 2484.0
76.500786394 2427.0
76.601053983 2440.0
76.701321572 2451.0
76.801589161 2592.0
76.901856750 2524.0
77.002124339 2559.0
77.102391928 2693.0
77.202659517 2623.0
77.302927106 2713.0
77.403194695 2678.0
77.503462284 2727.0
77.603729873 2705.0
77.703997462 2717.0
77.804265051 2818.0
77.904532640 2889.0
78.004800229 2977.0
78.105067818 2964.0
78.205335406 2974.0
78.305602995 2964.0
78.405870584 3059.0
78.506138173 2976.0
78.606405762 2956.0
78.706673351 2919.0
78.806940940 2979.0
78.907208529 2794.0
79.007476118 2872.0
79.107743707 2749.0
79.208011296 2698.0
79.308278885 2756.0
79.408546474 2611.0
79.508814063 2657.0
79.609081652 2780.0
79.709349241 2559.0
79.809616830 2858.0
79.909884419 2665.0
80.010152008 2750.0
80.110419597 2681.0
80.210687186 2613.0
80.310954775 2721.0
80.411222364 2659.0
80.511489953 2644.0
80.611757542 2669.0
80.712025131 2716.0
80.812292720 2636.0
80.912560309 2686.0
81.012827898 2634.0
81.113095487 2757.0
81.213363076 2646.0
81.313630665 2614.0
81.413898254 2527.0
81.514165843 2613.0
81.614433432 2678.0
81.714701021 2600.0
81.814968610 2653.0
81.915236199 2691.0
82.015503788 2627.0
82.115771377 2664.0
82.216038966 2714.0
82.316306555 2732.0
82.416574144 2641.0
82.516841733 2677.0
82.617109322 2593.0
82.717376911 2702.0
82.817644500 2565.0
82.917912089 2678.0
83.018179678 2668.0
83.118447267 2725.0
83.218714856 2703.0
83.318982445 2787.0
83.419250034 2947.0
83.519517623 2832.0
83.619785212 2797.0
83.720052801 2732.0
83.820320390 2780.0
83.920587979 2757.0
84.020855568 2842.0
84.121123157 2784.0
84.221390746 2792.0
84.321658335 2758.0
84.421925924 2843.0
84.522193513 2846.0
84.622461102 2905.0
84.722728691 2797.0
84.822996280 2844.0
84.923263869 2819.0
85.023531458 2929.0
85.123799047 2688.0
85.224066636 2681.0
85.324334225 2862.0
85.424601814 2734.0
85.524869403 2776.0
85.625136992 2755.0
85.725404581 2904.0
85.825672170 2715.0
85.925939759 2820.0
86.026207348 2882.0
86.126474937 2788.0
86.226742526 2710.0
86.327010115 2803.0
86.427277704 2741.0
86.527545293 2841.0
86.627812882 2759.0
86.728080471 2841.0
86.828348060 2724.0
86.928615649 2849.0
87.028883238 2759.0
87.129150827 2868.0
87.229418416 2778.0
87.329686005 2853.0
87.429953594 2871.0
87.530221183 2889.0
87.630488772 2812.0
87.730756361 2867.0
87.831023950 2769.0
87.931291539 2766.0
88.031559128 2895.0
88.131826717 2867.0
88.232094306 2906.0
88.332361895 2815.0
88.432629484 2758.0
88.532897073 2920.0
88.633164662 2748.0
88.733432251 2885.0
88.833699840 2916.0
88.933967429 2925.0
89.034235018 2906.0
89.134502607 2827.0
89.234770196 2923.0
89.335037785 2907.0
89.435305374 2864.0
89.535572963 2849.0
89.635840552 2842.0
89.736108141 2935.0
89.836375730 3023.0
89.936643319 2928.0
90.036910908 2971.0
90.137178497 2900.0
90.237446086 3103.0
90.337713675 2937.0
90.437981264 3061.0
90.538248853 3048.0
90.638516442 3045.0
90.738784031 3125.0
90.839051620 3196.0
90.939319209 3032.0
91.039586798 3057.0
91.139854387 3138.0
91.240121976 3113.0
91.340389565 3045.0
91.440657154 3072.0
91.540924743 3172.0
91.641192332 3250.0
91.741459921 3112.0
91.841727510 3239.0
91.941995099 3288.0
92.042262688 3304.0
92.142530277 3266.0
92.242797866 3440.0
92.343065455 3645.0
92.443333044 3740.0
92.543600633 3858.0
92.643868222 3934.0
92.744135811 4220.0
92.844403400 4448.0
92.944670989 4727.0
93.044938578 5270.0
93.145206167 5753.0
93.245473756 6328.0
93.345741345 6912.0
93.446008934 7429.0
93.546276523 8049.0
93.646544112 7993.0
93.746811701 7810.0
93.847079290 7151.0
93.947346879 6678.0
94.047614468 5933.0
94.147882057 5198.0
94.248149646 4655.0
94.348417235 4392.0
94.448684824 3995.0
94.548952413 3861.0
94.649220002 3754.0
94.749487591 3545.0
94.849755179 3494.0
94.950022768 3436.0
95.050290357 3373.0
95.150557946 3286.0
95.250825535 3277.0
95.351093124 3236.0
95.451360713 3301.0
95.551628302 3146.0
95.651895891 3207.0
95.752163480 3313.0
95.852431069 3340.0
95.952698658 3302.0
96.052966247 3287.0
96.153233836 3346.0
96.253501425 3338.0
96.353769014 3240.0
96.454036603 3133.0
96.554304192 3294.0
96.654571781 3249.0
96.754839370 3213.0
96.855106959 3296.0
96.955374548 3146.0
97.055642137 3289.0
97.155909726 3302.0
97.256177315 3378.0
97.356444904 3181.0
97.456712493 3187.0
97.556980082 3271.0
97.657247671 3314.0
97.757515260 3309.0
97.857782849 3301.0
97.958050438 3283.0
98.058318027 3235.0
98.158585616 3237.0
98.258853205 3190.0
98.359120794 3260.0
98.459388383 3384.0
98.559655972 3336.0
98.659923561 3275.0
98.760191150 3350.0
98.860458739 3429.0
98.960726328 3329.0
99.060993917 3449.0
99.161261506 3358.0
99.261529095 3261.0
99.361796684 3331.0
99.462064273 3368.0
99.562331862 3137.0
99.662599451 3283.0
99.762867040 3362.0
99.863134629 3197.0
99.963402218 3386.0
100.063669807 3350.0
100.163937396 3338.0
100.264204985 3320.0
100.364472574 3368.0
100.464740163 3355.0
100.565007752 3437.0
100.665275341 3406.0
100.765542930 3432.0
100.865810519 3442.0
100.966078108 3466.0
101.066345697 3534.0
101.166613286 3493.0
101.266880875 3439.0
101.367148464 3368.0
101.467416053 3525.0
101.567683642 3403.0
101.667951231 3542.0
101.768218820 3464.0
101.868486409 3508.0
101.968753998 3610.0
102.069021587 3445.0
102.169289176 3433.0
102.269556765 3455.0
102.369824354 3499.0
102.470091943 3415.0
102.570359532 3551.0
102.670627121 3462.0
102.770894710 3546.0
102.871162299 3610.0
102.971429888 3531.0
103.071697477 3497.0
103.171965066 3573.0
103.272232655 3397.0
103.372500244 3523.0
103.472767833 3538.0
103.573035422 3570.0
103.673303011 3570.0
103.773570600 3589.0
103.873838189 3650.0
103.974105778 3643.0
104.074373367 3559.0
104.174640956 3616.0
104.274908545 3701.0
104.375176134 3455.0
104.475443723 3574.0
104.575711312 3575.0
104.675978901 3537.0
104.776246490 3568.0
104.876514079 3579.0
104.976781668 3562.0
105.077049257 3650.0
105.177316846 3669.0
105.277584435 3588.0
105.377852024 3715.0
105.478119613 3720.0
105.578387202 3790.0
105.678654791 3736.0
105.778922380 3838.0
105.879189969 3797.0
105.979457558 3779.0
106.079725147 3888.0
106.179992736 3822.0
106.280260325 3782.0
106.380527914 3731.0
106.480795503 3851.0
106.581063092 3823.0
106.681330681 3782.0
106.781598270 3743.0
106.881865859 3921.0
106.982133448 3883.0
107.082401037 3802.0
107.182668626 3899.0
107.282936215 4008.0
107.383203804 4035.0
107.483471393 3868.0
107.583738982 3969.0
107.684006571 3930.0
107.784274160 4107.0
107.884541749 3934.0
107.984809338 4027.0
108.085076927 4109.0
108.185344516 4231.0
108.285612105 4245.0
108.385879694 4127.0
108.486147283 4361.0
108.586414872 4401.0
108.686682461 4352.0
108.786950050 4280.0
108.887217639 4386.0
108.987485228 4485.0
109.087752817 4592.0
109.188020406 4637.0
109.288287995 4678.0
109.388555584 4584.0
109.488823173 4699.0
109.589090762 4708.0
109.689358351 4590.0
109.789625940 4556.0
109.889893529 4300.0
109.990161118 4239.0
110.090428707 4298.0
110.190696296 4214.0
110.290963885 3981.0
110.391231474 4078.0
110.491499063 4030.0
110.591766652 3903.0
110.692034241 4047.0
110.792301830 3970.0
110.892569419 3867.0
110.992837008 4083.0
111.093104597 3980.0
111.193372186 3924.0
111.293639775 3996.0
111.393907364 3979.0
111.494174952 3850.0
111.594442541 3900.0
111.694710130 3941.0
111.794977719 3852.0
111.895245308 3800.0
111.995512897 3926.0
112.095780486 3974.0
112.196048075 3855.0
112.296315664 3846.0
112.396583253 3933.0
112.496850842 3858.0
112.597118431 3851.0
112.697386020 3951.0
112.797653609 3881.0
112.897921198 4027.0
112.998188787 3950.0
113.098456376 3945.0
113.198723965 3903.0
113.298991554 3905.0
113.399259143 3948.0
113.499526732 4027.0
113.599794321 3884.0
113.700061910 4092.0
113.800329499 4023.0
113.900597088 4100.0
114.000864677 4023.0
114.101132266 4069.0
114.201399855 4112.0
114.301667444 4149.0
114.401935033 4028.0
114.502202622 4078.0
114.602470211 4167.0
114.702737800 4108.0
114.803005389 4091.0
114.903272978 4076.0
115.003540567 4037.0
115.103808156 4206.0
115.204075745 3984.0
115.304343334 4050.0
115.404610923 4151.0
115.504878512 4052.0
115.605146101 4101.0
115.705413690 4018.0
115.805681279 4067.0
115.905948868 4099.0
116.006216457 4083.0
116.106484046 3990.0
116.206751635 4171.0
116.307019224 4185.0
116.407286813 4165.0
116.507554402 4257.0
116.607821991 4168.0
116.708089580 4046.0
116.808357169 4094.0
116.908624758 4208.0
117.008892347 4240.0
117.109159936 4157.0
117.209427525 4220.0
117.309695114 4239.0
117.409962703 4248.0
117.510230292 4093.0
117.610497881 4233.0
117.710765470 4275.0
117.811033059 4375.0
117.911300648 4193.0
118.011568237 4293.0
118.111835826 4184.0
118.212103415 4350.0
118.312371004 4297.0
118.412638593 4308.0
118.512906182 4232.0
118.613173771 4246.0
118.713441360 4269.0
118.813708949 4352.0
118.913976538 4326.0
119.014244127 4288.0
119.114511716 4321.0
119.214779305 4241.0
119.315046894 4302.0
119.415314483 4173.0
119.515582072 4280.0
119.615849661 4380.0
119.716117250 4267.0
