20.050133790 667.0
20.150401379 660.0
20.250668968 668.0
20.350936557 619.0
20.451204146 772.0
20.551471735 777.0
20.651739324 791.0
20.752006913 697.0
20.852274502 625.0
20.952542091 605.0
21.052809680 658.0
21.153077269 624.0
21.253344858 628.0
21.353612447 643.0
21.453880036 649.0
21.554147625 574.0
21.654415214 668.0
21.754682803 659.0
21.854950392 597.0
21.955217981 644.0
22.055485570 648.0
22.155753159 678.0
22.256020748 666.0
22.356288337 656.0
22.456555926 634.0
22.556823515 627.0
22.657091104 592.0
22.757358693 593.0
22.857626282 559.0
22.957893871 558.0
23.058161460 631.0
23.158429049 580.0
23.258696638 596.0
23.358964227 602.0
23.459231816 609.0
23.559499405 625.0
23.659766994 609.0
23.760034582 642.0
23.860302171 638.0
23.960569760 610.0
24.060837349 559.0
24.161104938 547.0
24.261372527 631.0
24.361640116 614.0
24.461907705 608.0
24.562175294 604.0
24.662442883 643.0
24.762710472 606.0
24.862978061 641.0
24.963245650 606.0
25.063513239 614.0
25.163780828 569.0
25.264048417 584.0
25.364316006 611.0
25.464583595 577.0
25.564851184 582.0
25.665118773 642.0
25.765386362 607.0
25.865653951 596.0
25.965921540 634.0
26.066189129 675.0
26.166456718 670.0
26.266724307 753.0
26.366991896 901.0
26.467259485 844.0
26.567527074 736.0
26.667794663 687.0
26.768062252 669.0
26.868329841 619.0
26.968597430 610.0
27.068865019 596.0
27.169132608 569.0
27.269400197 545.0
27.369667786 497.0
27.469935375 588.0
27.570202964 586.0
27.670470553 527.0
27.770738142 577.0
27.871005731 554.0
27.971273320 530.0
28.071540909 563.0
28.171808498 569.0
28.272076087 531.0
28.372343676 538.0
28.472611265 570.0
28.572878854 532.0
28.673146443 528.0
28.773414032 504.0
28.873681621 554.0
28.973949210 532.0
29.074216799 540.0
29.174484388 521.0
29.274751977 477.0
29.375019566 538.0
29.475287155 480.0
29.575554744 570.0
29.675822333 503.0
29.776089922 499.0
29.876357511 508.0
29.976625100 506.0
30.076892689 492.0
30.177160278 501.0
30.277427867 513.0
30.377695456 527.0
30.477963045 504.0
30.578230634 516.0
30.678498223 528.0
30.778765812 475.0
30.879033401 503.0
30.979300990 469.0
31.079568578 496.0
31.179836167 563.0
31.280103756 567.0
31.380371345 586.0
31.480638934 619.0
31.580906523 682.0
31.681174112 842.0
31.781441701 864.0
31.881709290 749.0
31.981976879 634.0
32.082244468 604.0
32.182512057 540.0
32.282779646 526.0
32.383047235 504.0
32.483314824 487.0
32.583582413 482.0
32.683850002 502.0
32.784117591 509.0
32.884385180 480.0
32.984652769 530.0
33.084920358 505.0
33.185187947 440.0
33.285455536 478.0
33.385723125 517.0
33.485990714 475.0
33.586258303 530.0
33.686525892 492.0
33.786793481 522.0
33.887061070 517.0
33.987328659 555.0
34.087596248 618.0
34.187863837 602.0
34.288131426 541.0
34.388399015 512.0
34.488666604 502.0
34.588934193 508.0
34.689201782 504.0
34.789469371 515.0
34.889736960 509.0
34.990004549 480.0
35.090272138 473.0
35.190539727 481.0
35.290807316 506.0
35.391074905 476.0
35.491342494 513.0
35.591610083 501.0
35.691877672 444.0
35.792145261 467.0
35.892412850 488.0
35.992680439 534.0
36.092948028 510.0
36.193215617 553.0
36.293483206 542.0
36.393750795 608.0
36.494018384 687.0
36.594285973 750.0
36.694553562 884.0
36.794821151 919.0
36.895088740 854.0
36.995356329 812.0
37.095623918 764.0
37.195891507 775.0
37.296159096 738.0
37.396426685 833.0
37.496694274 817.0
37.596961863 946.0
37.697229452 1130.0
37.797497041 1466.0
37.897764630 1930.0
37.998032219 2356.0
38.098299808 2764.0
38.198567397 2778.0
38.298834986 2608.0
38.399102574 2739.0
38.499370163 3173.0
38.599637752 3427.0
38.699905341 3202.0
38.800172930 2554.0
38.900440519 2031.0
39.000708108 1692.0
39.100975697 1643.0
39.201243286 1794.0
39.301510875 1688.0
39.401778464 1377.0
39.502046053 1089.0
39.602313642 858.0
39.702581231 810.0
39.802848820 761.0
39.903116409 745.0
40.003383998 776.0
40.103651587 684.0
40.203919176 734.0
40.304186765 716.0
40.404454354 822.0
40.504721943 1027.0
40.604989532 1136.0
40.705257121 1300.0
40.805524710 1280.0
40.905792299 1344.0
41.006059888 1237.0
41.106327477 1430.0
41.206595066 1919.0
41.306862655 2511.0
41.407130244 3509.0
41.507397833 4700.0
41.607665422 5864.0
41.707933011 6970.0
41.808200600 6743.0
41.908468189 4574.0
42.008735778 2562.0
42.109003367 1774.0
42.209270956 1304.0
42.309538545 1148.0
42.409806134 1003.0
42.510073723 804.0
42.610341312 760.0
42.710608901 686.0
42.810876490 704.0
42.911144079 673.0
43.011411668 685.0
43.111679257 703.0
43.211946846 682.0
43.312214435 655.0
43.412482024 565.0
43.512749613 619.0
43.613017202 621.0
43.713284791 574.0
43.813552380 580.0
43.913819969 555.0
44.014087558 633.0
44.114355147 594.0
44.214622736 597.0
44.314890325 624.0
44.415157914 627.0
44.515425503 625.0
44.615693092 697.0
44.715960681 678.0
44.816228270 658.0
44.916495859 767.0
45.016763448 781.0
45.117031037 808.0
45.217298626 923.0
45.317566215 997.0
45.417833804 1053.0
45.518101393 1037.0
45.618368982 935.0
45.718636570 817.0
45.818904159 756.0
45.919171748 630.0
46.019439337 647.0
46.119706926 671.0
46.219974515 601.0
46.320242104 671.0
46.420509693 693.0
46.520777282 734.0
46.621044871 720.0
46.721312460 862.0
46.821580049 904.0
46.921847638 1152.0
47.022115227 1440.0
47.122382816 1762.0
47.222650405 1849.0
47.322917994 1925.0
47.423185583 1709.0
47.523453172 1210.0
47.623720761 891.0
47.723988350 732.0
47.824255939 599.0
47.924523528 583.0
48.024791117 528.0
48.125058706 537.0
48.225326295 520.0
48.325593884 497.0
48.425861473 487.0
48.526129062 468.0
48.626396651 503.0
48.726664240 444.0
48.826931829 476.0
48.927199418 467.0
49.027467007 429.0
49.127734596 474.0
49.228002185 456.0
49.328269774 478.0
49.428537363 450.0
49.528804952 480.0
49.629072541 471.0
49.729340130 448.0
49.829607719 456.0
49.929875308 436.0
50.030142897 512.0
50.130410486 491.0
50.230678075 563.0
50.330945664 610.0
50.431213253 644.0
50.531480842 717.0
50.631748431 678.0
50.732016020 699.0
50.832283609 634.0
50.932551198 576.0
51.032818787 516.0
51.133086376 503.0
51.233353965 494.0
51.333621554 488.0
51.433889143 446.0
51.534156732 458.0
51.634424321 459.0
51.734691910 470.0
51.834959499 465.0
51.935227088 445.0
52.035494677 470.0
52.135762266 461.0
52.236029855 518.0
52.336297444 501.0
52.436565033 543.0
52.536832622 648.0
52.637100211 796.0
52.737367800 708.0
52.837635389 569.0
52.937902978 545.0
53.038170566 592.0
53.138438155 609.0
53.238705744 699.0
53.338973333 789.0
53.439240922 742.0
53.539508511 676.0
53.639776100 638.0
53.740043689 545.0
53.840311278 552.0
53.940578867 606.0
54.040846456 719.0
54.141114045 693.0
54.241381634 713.0
54.341649223 739.0
54.441916812 726.0
54.542184401 670.0
54.642451990 581.0
54.742719579 552.0
54.842987168 482.0
54.943254757 508.0
55.043522346 504.0
55.143789935 513.0
55.244057524 487.0
55.344325113 499.0
55.444592702 489.0
55.544860291 464.0
55.645127880 501.0
55.745395469 546.0
55.845663058 540.0
55.945930647 572.0
56.046198236 635.0
56.146465825 573.0
56.246733414 627.0
56.347001003 625.0
56.447268592 607.0
56.547536181 700.0
56.647803770 695.0
56.748071359 684.0
56.848338948 703.0
56.948606537 605.0
57.048874126 603.0
57.149141715 557.0
57.249409304 578.0
57.349676893 630.0
57.449944482 623.0
57.550212071 607.0
57.650479660 675.0
57.750747249 634.0
57.851014838 643.0
57.951282427 696.0
58.051550016 699.0
58.151817605 737.0
58.252085194 676.0
58.352352783 675.0
58.452620372 675.0
58.552887961 612.0
58.653155550 655.0
58.753423139 656.0
58.853690728 627.0
58.953958317 669.0
59.054225906 643.0
59.154493495 654.0
59.254761084 777.0
59.355028673 726.0
59.455296262 681.0
59.555563851 675.0
59.655831440 729.0
59.756099029 701.0
59.856366618 693.0
59.956634207 785.0
60.056901796 789.0
60.157169385 790.0
60.257436974 815.0
60.357704562 804.0
60.457972151 781.0
60.558239740 767.0
60.658507329 807.0
60.758774918 762.0
60.859042507 802.0
60.959310096 908.0
61.059577685 800.0
61.159845274 849.0
61.260112863 914.0
61.360380452 899.0
61.460648041 937.0
61.560915630 975.0
61.661183219 1046.0
61.761450808 1038.0
61.861718397 1141.0
61.961985986 1210.0
62.062253575 1351.0
62.162521164 1525.0
62.262788753 1503.0
62.363056342 1513.0
62.463323931 1798.0
62.563591520 2157.0
62.663859109 1945.0
62.764126698 1798.0
62.864394287 1379.0
62.964661876 1267.0
63.064929465 1108.0
63.165197054 1056.0
63.265464643 1018.0
63.365732232 1030.0
63.465999821 1062.0
63.566267410 1078.0
63.666534999 1007.0
63.766802588 1051.0
63.867070177 1057.0
63.967337766 1052.0
64.067605355 1187.0
64.167872944 1235.0
64.268140533 1231.0
64.368408122 1280.0
64.468675711 1250.0
64.568943300 1264.0
64.669210889 1411.0
64.769478478 1500.0
64.869746067 1544.0
64.970013656 1499.0
65.070281245 1301.0
65.170548834 1324.0
65.270816423 1267.0
65.371084012 1245.0
65.471351601 1325.0
65.571619190 1292.0
65.671886779 1478.0
65.772154368 1531.0
65.872421957 1565.0
65.972689546 1895.0
66.072957135 2093.0
66.173224724 2257.0
66.273492313 2474.0
66.373759902 2423.0
66.474027491 2242.0
66.574295080 1871.0
66.674562669 1538.0
66.774830258 1355.0
66.875097847 1359.0
66.975365436 1343.0
67.075633025 1148.0
67.175900614 1210.0
67.276168203 1245.0
67.376435792 1272.0
67.476703381 1161.0
67.576970970 1134.0
67.677238558 1144.0
67.777506147 1226.0
67.877773736 1106.0
67.978041325 1193.0
68.078308914 1194.0
68.178576503 1277.0
68.278844092 1160.0
68.379111681 1179.0
68.479379270 1171.0
68.579646859 1261.0
68.679914448 1313.0
68.780182037 1118.0
68.880449626 1285.0
68.980717215 1209.0
69.080984804 1311.0
69.181252393 1249.0
69.281519982 1296.0
69.381787571 1288.0
69.482055160 1292.0
69.582322749 1315.0
69.682590338 1289.0
69.782857927 1269.0
69.883125516 1341.0
69.983393105 1513.0
70.083660694 1385.0
70.183928283 1430.0
70.284195872 1449.0
70.384463461 1511.0
70.484731050 1583.0
70.584998639 1541.0
70.685266228 1511.0
70.785533817 1553.0
70.885801406 1614.0
70.986068995 1536.0
71.086336584 1525.0
71.186604173 1587.0
71.286871762 1816.0
71.387139351 1782.0
71.487406940 1844.0
71.587674529 1932.0
71.687942118 2081.0
71.788209707 2242.0
71.888477296 2310.0
71.988744885 2424.0
72.089012474 2206.0
72.189280063 2021.0
72.289547652 1799.0
72.389815241 1709.0
72.490082830 1666.0
72.590350419 1615.0
72.690618008 1532.0
72.790885597 1570.0
72.891153186 1514.0
72.991420775 1464.0
73.091688364 1487.0
73.191955953 1416.0
73.292223542 1390.0
73.392491131 1459.0
73.492758720 1515.0
73.593026309 1349.0
73.693293898 1404.0
73.793561487 1424.0
73.893829076 1372.0
73.994096665 1459.0
74.094364254 1361.0
74.194631843 1348.0
74.294899432 1366.0
74.395167021 1510.0
74.495434610 1386.0
74.595702199 1378.0
74.695969788 1391.0
74.796237377 1488.0
74.896504966 1377.0
74.996772554 1421.0
75.097040143 1454.0
75.197307732 1516.0
75.297575321 1470.0
75.397842910 1438.0
75.498110499 1426.0
75.598378088 1594.0
75.698645677 1582.0
75.798913266 1599.0
75.899180855 1518.0
75.999448444 1594.0
76.099716033 1593.0
76.199983622 1587.0
76.300251211 1645.0
76.400518800 1621.0
76.500786389 1711.0
76.601053978 1700.0
76.701321567 1801.0
76.801589156 1680.0
76.901856745 1645.0
77.002124334 1754.0
77.102391923 1697.0
77.202659512 1788.0
77.302927101 1886.0
77.403194690 2076.0
77.503462279 2041.0
77.603729868 2181.0
77.703997457 2159.0
77.804265046 2537.0
77.904532635 2675.0
78.004800224 2497.0
78.105067813 2350.0
78.205335402 2274.0
78.305602991 2315.0
78.405870580 2310.0
78.506138169 2399.0
78.606405758 2508.0
78.706673347 2655.0
78.806940936 2714.0
78.907208525 2932.0
79.007476114 3210.0
79.107743703 3695.0
79.208011292 4236.0
79.308278881 4290.0
79.408546470 4351.0
79.508814059 4101.0
79.609081648 3981.0
79.709349237 3126.0
79.809616826 2762.0
79.909884415 2380.0
80.010152004 2229.0
80.110419593 2216.0
80.210687182 2022.0
80.310954771 2048.0
80.411222360 2022.0
80.511489949 2188.0
80.611757538 2038.0
80.712025127 2062.0
80.812292716 2166.0
80.912560305 2320.0
81.012827894 2296.0
81.113095483 2327.0
81.213363072 2461.0
81.313630661 2500.0
81.413898250 2478.0
81.514165839 2404.0
81.614433428 2383.0
81.714701017 2306.0
81.814968606 2386.0
81.915236195 2188.0
82.015503784 2205.0
82.115771373 2250.0
82.216038962 2355.0
82.316306550 2341.0
82.416574139 2363.0
82.516841728 2264.0
82.617109317 2220.0
82.717376906 2220.0
82.817644495 2028.0
82.917912084 2018.0
83.018179673 1986.0
83.118447262 2014.0
83.218714851 1877.0
83.318982440 1969.0
83.419250029 1801.0
83.519517618 1953.0
83.619785207 1799.0
83.720052796 1821.0
83.820320385 1901.0
83.920587974 1874.0
84.020855563 1972.0
84.121123152 1951.0
84.221390741 1933.0
84.321658330 1935.0
84.421925919 2063.0
84.522193508 1844.0
84.622461097 1932.0
84.722728686 1911.0
84.822996275 2022.0
84.923263864 2012.0
85.023531453 2017.0
85.123799042 2087.0
85.224066631 2142.0
85.324334220 2186.0
85.424601809 2120.0
85.524869398 2063.0
85.625136987 1938.0
85.725404576 1979.0
85.825672165 1807.0
85.925939754 1756.0
86.026207343 1756.0
86.126474932 1811.0
86.226742521 1772.0
86.327010110 1788.0
86.427277699 1777.0
86.527545288 1831.0
86.627812877 1896.0
86.728080466 1766.0
86.828348055 1790.0
86.928615644 1794.0
87.028883233 1874.0
87.129150822 1858.0
87.229418411 1735.0
87.329686000 1740.0
87.429953589 1765.0
87.530221178 1887.0
87.630488767 1940.0
87.730756356 1793.0
87.831023945 1961.0
87.931291534 1936.0
88.031559123 1801.0
88.131826712 1901.0
88.232094301 1824.0
88.332361890 1868.0
88.432629479 1818.0
88.532897068 1842.0
88.633164657 1845.0
88.733432246 1852.0
88.833699835 1907.0
88.933967424 1851.0
89.034235013 1794.0
89.134502602 1867.0
89.234770191 1780.0
89.335037780 1830.0
89.435305369 1914.0
89.535572958 1922.0
89.635840546 1898.0
89.736108135 1986.0
89.836375724 1905.0
89.936643313 1894.0
90.036910902 1896.0
90.137178491 1931.0
90.237446080 1951.0
90.337713669 1964.0
90.437981258 1939.0
90.538248847 2062.0
90.638516436 2014.0
90.738784025 2080.0
90.839051614 2005.0
90.939319203 2159.0
91.039586792 2053.0
91.139854381 1905.0
91.240121970 1991.0
91.340389559 1967.0
91.440657148 1966.0
91.540924737 1987.0
91.641192326 1938.0
91.741459915 1944.0
91.841727504 1912.0
91.941995093 1934.0
92.042262682 1972.0
92.142530271 1946.0
92.242797860 1992.0
92.343065449 2086.0
92.443333038 2105.0
92.543600627 2014.0
92.643868216 2171.0
92.744135805 2173.0
92.844403394 2090.0
92.944670983 2139.0
93.044938572 2078.0
93.145206161 2166.0
93.245473750 2137.0
93.345741339 2100.0
93.446008928 2132.0
93.546276517 2077.0
93.646544106 2113.0
93.746811695 2073.0
93.847079284 2082.0
93.947346873 2248.0
94.047614462 2199.0
94.147882051 2180.0
94.248149640 2170.0
94.348417229 2170.0
94.448684818 2231.0
94.548952407 2194.0
94.649219996 2139.0
94.749487585 2216.0
94.849755174 2154.0
94.950022763 2087.0
95.050290352 2109.0
95.150557941 2240.0
95.250825530 2077.0
95.351093119 2195.0
95.451360708 2145.0
95.551628297 2155.0
95.651895886 2180.0
95.752163475 2171.0
95.852431064 2165.0
95.952698653 2138.0
96.052966242 2099.0
96.153233831 2128.0
96.253501420 2173.0
96.353769009 2239.0
96.454036598 2037.0
96.554304187 2136.0
96.654571776 2240.0
96.754839365 2279.0
96.855106954 2267.0
96.955374542 2303.0
97.055642131 2333.0
97.155909720 2342.0
97.256177309 2389.0
97.356444898 2350.0
97.456712487 2380.0
97.556980076 2501.0
97.657247665 2491.0
97.757515254 2473.0
97.857782843 2458.0
97.958050432 2544.0
98.058318021 2496.0
98.158585610 2400.0
98.258853199 2375.0
98.359120788 2384.0
98.459388377 2424.0
98.559655966 2379.0
98.659923555 2331.0
98.760191144 2297.0
98.860458733 2269.0
98.960726322 2163.0
99.060993911 2318.0
99.161261500 2213.0
99.261529089 2241.0
99.361796678 2273.0
99.462064267 2222.0
99.562331856 2233.0
99.662599445 2265.0
99.762867034 2215.0
99.863134623 2282.0
99.963402212 2239.0
100.063669801 2257.0
100.163937390 2325.0
100.264204979 2235.0
100.364472568 2321.0
100.464740157 2186.0
100.565007746 2288.0
100.665275335 2230.0
100.765542924 2276.0
100.865810513 2293.0
100.966078102 2239.0
101.066345691 2328.0
101.166613280 2346.0
101.266880869 2303.0
101.367148458 2316.0
101.467416047 2373.0
101.567683636 2298.0
101.667951225 2427.0
101.768218814 2382.0
101.868486403 2355.0
101.968753992 2292.0
102.069021581 2380.0
102.169289170 2317.0
102.269556759 2266.0
102.369824348 2458.0
102.470091937 2325.0
102.570359526 2430.0
102.670627115 2394.0
102.770894704 2399.0
102.871162293 2360.0
102.971429882 2413.0
103.071697471 2347.0
103.171965060 2458.0
103.272232649 2471.0
103.372500238 2506.0
103.472767827 2515.0
103.573035416 2495.0
103.673303005 2471.0
103.773570594 2487.0
103.873838183 2516.0
103.974105772 2461.0
104.074373361 2540.0
104.174640950 2499.0
104.274908538 2409.0
104.375176127 2468.0
104.475443716 2519.0
104.575711305 2475.0
104.675978894 2544.0
104.776246483 2576.0
104.876514072 2532.0
104.976781661 2574.0
105.077049250 2602.0
105.177316839 2660.0
105.277584428 2708.0
105.377852017 2859.0
105.478119606 2941.0
105.578387195 2977.0
105.678654784 2919.0
105.778922373 2885.0
105.879189962 2921.0
105.979457551 2956.0
106.079725140 3022.0
106.179992729 2934.0
106.280260318 2927.0
106.380527907 2941.0
106.480795496 2948.0
106.581063085 2961.0
106.681330674 3099.0
106.781598263 3072.0
106.881865852 3043.0
106.982133441 2971.0
107.082401030 2874.0
107.182668619 3024.0
107.282936208 2899.0
107.383203797 2945.0
107.483471386 2882.0
107.583738975 2800.0
107.684006564 2807.0
107.784274153 2815.0
107.884541742 2629.0
107.984809331 2754.0
108.085076920 2780.0
108.185344509 2757.0
108.285612098 2647.0
108.385879687 2616.0
108.486147276 2782.0
108.586414865 2678.0
108.686682454 2731.0
108.786950043 2537.0
108.887217632 2716.0
108.987485221 2843.0
109.087752810 2738.0
109.188020399 2730.0
109.288287988 2698.0
109.388555577 2742.0
109.488823166 2771.0
109.589090755 2762.0
109.689358344 2707.0
109.789625933 2829.0
109.889893522 2803.0
109.990161111 2770.0
110.090428700 2706.0
110.190696289 2851.0
110.290963878 2763.0
110.391231467 2857.0
110.491499056 2677.0
110.591766645 2879.0
110.692034234 2762.0
110.792301823 2826.0
110.892569412 2766.0
110.992837001 2673.0
111.093104590 2876.0
111.193372179 2809.0
111.293639768 2853.0
111.393907357 2720.0
111.494174946 2968.0
111.594442534 2831.0
111.694710123 2910.0
111.794977712 2802.0
111.895245301 2841.0
111.995512890 3012.0
112.095780479 2920.0
112.196048068 2995.0
112.296315657 3022.0
112.396583246 2955.0
112.496850835 3031.0
112.597118424 3009.0
112.697386013 2977.0
112.797653602 3010.0
112.897921191 3126.0
112.998188780 3076.0
113.098456369 3000.0
113.198723958 3120.0
113.298991547 3255.0
113.399259136 3086.0
113.499526725 3155.0
113.599794314 3149.0
113.700061903 3224.0
113.800329492 3390.0
113.900597081 3590.0
114.000864670 3444.0
114.101132259 3550.0
114.201399848 3513.0
114.301667437 3520.0
114.401935026 3563.0
114.502202615 3474.0
114.602470204 3606.0
114.702737793 3416.0
114.803005382 3449.0
114.903272971 3501.0
115.003540560 3474.0
115.103808149 3322.0
115.204075738 3507.0
115.304343327 3407.0
115.404610916 3512.0
115.504878505 3494.0
115.605146094 3618.0
115.705413683 3490.0
115.805681272 3347.0
115.905948861 3597.0
116.006216450 3654.0
116.106484039 3656.0
116.206751628 3730.0
116.307019217 3874.0
116.407286806 3889.0
116.507554395 4108.0
116.607821984 4278.0
116.708089573 4162.0
116.808357162 4475.0
116.908624751 4218.0
117.008892340 3965.0
117.109159929 3971.0
117.209427518 4137.0
117.309695107 4134.0
117.409962696 4037.0
117.510230285 4074.0
117.610497874 4065.0
117.710765463 3979.0
117.811033052 4011.0
117.911300641 4098.0
118.011568230 4016.0
118.111835819 4138.0
118.212103408 3976.0
118.312370997 3845.0
118.412638586 3799.0
118.512906175 3804.0
118.613173764 3684.0
118.713441353 3616.0
118.813708942 3530.0
118.913976530 3517.0
119.014244119 3479.0
119.114511708 3379.0
119.214779297 3294.0
119.315046886 3240.0
119.415314475 3415.0
119.515582064 3337.0
119.615849653 3305.0
119.716117242 3296.0
119.816384831 3439.0
119.916652420 3341.0
120.016920009 3349.0
120.117187598 3338.0
120.217455187 3303.0
120.317722776 3402.0
120.417990365 3384.0
120.518257954 3377.0
120.618525543 3408.0
120.718793132 3498.0
120.819060721 3395.0
120.919328310 3407.0
121.019595899 3449.0
121.119863488 3522.0
121.220131077 3378.0
121.320398666 3576.0
121.420666255 3406.0
121.520933844 3368.0
121.621201433 3453.0
121.721469022 3466.0
121.821736611 3444.0
121.922004200 3384.0
122.022271789 3601.0
122.122539378 3398.0
122.222806967 3437.0
122.323074556 3417.0
122.423342145 3381.0
122.523609734 3390.0
122.623877323 3316.0
122.724144912 3324.0
122.824412501 3406.0
122.924680090 3392.0
123.024947679 3542.0
123.125215268 3388.0
123.225482857 3338.0
123.325750446 3554.0
123.426018035 3380.0
123.526285624 3528.0
123.626553213 3469.0
123.726820802 3558.0
123.827088391 3512.0
123.927355980 3625.0
124.027623569 3807.0
124.127891158 3710.0
124.228158747 3622.0
124.328426336 3782.0
124.428693925 3665.0
124.528961514 3413.0
124.629229103 3697.0
124.729496692 3687.0
124.829764281 3638.0
124.930031870 3594.0
125.030299459 3403.0
125.130567048 3543.0
125.230834637 3516.0
125.331102226 3493.0
125.431369815 3355.0
125.531637404 3340.0
125.631904993 3459.0
125.732172582 3357.0
125.832440171 3395.0
125.932707760 3513.0
126.032975349 3440.0
126.133242938 3322.0
126.233510526 3411.0
126.333778115 3444.0
126.434045704 3474.0
126.534313293 3490.0
126.634580882 3579.0
126.734848471 3635.0
126.835116060 3662.0
126.935383649 3486.0
127.035651238 3611.0
127.135918827 3592.0
127.236186416 3605.0
127.336454005 3652.0
127.436721594 3626.0
127.536989183 3713.0
127.637256772 3613.0
127.737524361 3639.0
127.837791950 3656.0
127.938059539 3576.0
128.038327128 3555.0
128.138594717 3699.0
128.238862306 3659.0
128.339129895 3657.0
128.439397484 3586.0
128.539665073 3596.0
128.639932662 3670.0
128.740200251 3600.0
128.840467840 3583.0
128.940735429 3468.0
129.041003018 3669.0
129.141270607 3654.0
129.241538196 3554.0
129.341805785 3469.0
129.442073374 3558.0
129.542340963 3610.0
129.642608552 3551.0
129.742876141 3532.0
129.843143730 3471.0
