20.049845050 2855.0
20.183535142 2906.0
20.317225234 2931.0
20.450915326 2851.0
20.584605418 3038.0
20.718295511 2789.0
20.851985603 2855.0
20.985675695 3013.0
21.119365787 2980.0
21.253055879 3034.0
21.386745971 3305.0
21.520436063 3646.0
21.654126155 3426.0
21.787816247 3123.0
21.921506339 3105.0
22.055196432 3125.0
22.188886524 3147.0
22.322576616 3007.0
22.456266708 2917.0
22.589956800 2872.0
22.723646892 2875.0
22.857336984 2926.0
22.991027076 2872.0
23.124717168 2901.0
23.258407260 2764.0
23.392097353 2906.0
23.525787445 2940.0
23.659477537 3026.0
23.793167629 2861.0
23.926857721 2702.0
24.060547813 2937.0
24.194237905 3139.0
24.327927997 3397.0
24.461618089 3451.0
24.595308181 3375.0
24.728998274 3649.0
24.862688366 3507.0
24.996378458 3235.0
25.130068550 3132.0
25.263758642 2930.0
25.397448734 2851.0
25.531138826 2882.0
25.664828918 2904.0
25.798519010 2902.0
25.932209102 2814.0
26.065899195 2877.0
26.199589287 2954.0
26.333279379 2974.0
26.466969471 3000.0
26.600659563 3381.0
26.734349655 3663.0
26.868039747 3531.0
27.001729839 3284.0
27.135419931 3282.0
27.269110023 3439.0
27.402800116 3799.0
27.536490208 3668.0
27.670180300 3918.0
27.803870392 5066.0
27.937560484 5038.0
28.071250576 3882.0
28.204940668 3496.0
28.338630760 3255.0
28.472320852 3258.0
28.606010945 3355.0
28.739701037 3294.0
28.873391129 3144.0
29.007081221 2924.0
29.140771313 3143.0
29.274461405 3203.0
29.408151497 3138.0
29.541841589 3244.0
29.675531681 3378.0
29.809221773 3448.0
29.942911866 3368.0
30.076601958 3457.0
30.210292050 3708.0
30.343982142 3802.0
30.477672234 3764.0
30.611362326 3433.0
30.745052418 3379.0
30.878742510 3192.0
31.012432602 3233.0
31.146122694 3277.0
31.279812787 3502.0
31.413502879 3707.0
31.547192971 3705.0
31.680883063 4034.0
31.814573155 4269.0
31.948263247 3852.0
32.081953339 3895.0
32.215643431 3853.0
32.349333523 4266.0
32.483023615 5639.0
32.616713708 8589.0
32.750403800 8963.0
32.884093892 6451.0
33.017783984 6216.0
33.151474076 5418.0
33.285164168 4769.0
33.418854260 4154.0
33.552544352 3842.0
33.686234444 4252.0
33.819924536 4850.0
33.953614629 4198.0
34.087304721 3674.0
34.220994813 3618.0
34.354684905 4163.0
34.488374997 5131.0
34.622065089 4710.0
34.755755181 4031.0
34.889445273 3813.0
35.023135365 3832.0
35.156825457 4246.0
35.290515550 4836.0
35.424205642 5795.0
35.557895734 4520.0
35.691585826 3612.0
35.825275918 3187.0
35.958966010 3141.0
36.092656102 3093.0
36.226346194 3055.0
36.360036286 3188.0
36.493726379 3247.0
36.627416471 3460.0
36.761106563 3805.0
36.894796655 4367.0
37.028486747 3774.0
37.162176839 3580.0
37.295866931 3539.0
37.429557023 3567.0
37.563247115 3598.0
37.696937207 3586.0
37.830627300 3483.0
37.964317392 3683.0
38.098007484 3648.0
38.231697576 4176.0
38.365387668 4460.0
38.499077760 4012.0
38.632767852 3359.0
38.766457944 3157.0
38.900148036 3086.0
39.033838128 2988.0
39.167528221 3092.0
39.301218313 3207.0
39.434908405 3212.0
39.568598497 3399.0
39.702288589 3324.0
39.835978681 3178.0
39.969668773 3223.0
40.103358865 3553.0
40.237048957 4310.0
40.370739049 5460.0
40.504429142 4623.0
40.638119234 3672.0
40.771809326 3246.0
40.905499418 3247.0
41.039189510 3163.0
41.172879602 3140.0
41.306569694 3181.0
41.440259786 3127.0
41.573949878 3235.0
41.707639970 3440.0
41.841330063 3767.0
41.975020155 3661.0
42.108710247 3630.0
42.242400339 3400.0
42.376090431 3318.0
42.509780523 3388.0
42.643470615 3470.0
42.777160707 3416.0
42.910850799 3462.0
43.044540891 3662.0
43.178230984 3570.0
43.311921076 3833.0
43.445611168 4211.0
43.579301260 5037.0
43.712991352 5114.0
43.846681444 4428.0
43.980371536 3896.0
44.114061628 3757.0
44.247751720 3525.0
44.381441813 3628.0
44.515131905 3562.0
44.648821997 3560.0
44.782512089 3664.0
44.916202181 3602.0
45.049892273 3500.0
45.183582365 3650.0
45.317272457 4009.0
45.450962549 4207.0
45.584652641 4134.0
45.718342734 3892.0
45.852032826 3664.0
45.985722918 3398.0
46.119413010 3476.0
46.253103102 3507.0
46.386793194 3319.0
46.520483286 3426.0
46.654173378 3525.0
46.787863470 3389.0
46.921553562 3469.0
47.055243655 3553.0
47.188933747 3599.0
47.322623839 3704.0
47.456313931 3649.0
47.590004023 3674.0
47.723694115 3809.0
47.857384207 3805.0
47.991074299 3732.0
48.124764391 3861.0
48.258454483 3942.0
48.392144576 4112.0
48.525834668 4134.0
48.659524760 4126.0
48.793214852 4014.0
48.926904944 4211.0
49.060595036 4107.0
49.194285128 4062.0
49.327975220 4141.0
49.461665312 4012.0
49.595355404 4237.0
49.729045497 4443.0
49.862735589 4417.0
49.996425681 4294.0
50.130115773 4174.0
50.263805865 4272.0
50.397495957 4520.0
50.531186049 4801.0
50.664876141 5578.0
50.798566233 5899.0
50.932256326 6371.0
51.065946418 5876.0
51.199636510 5119.0
51.333326602 4672.0
51.467016694 4396.0
51.600706786 4280.0
51.734396878 4450.0
51.868086970 4673.0
52.001777062 4833.0
52.135467154 4792.0
52.269157247 4732.0
52.402847339 4922.0
52.536537431 5154.0
52.670227523 4630.0
52.803917615 4465.0
52.937607707 4315.0
53.071297799 4428.0
53.204987891 4457.0
53.338677983 4407.0
53.472368075 4299.0
53.606058168 4498.0
53.739748260 4553.0
53.873438352 4530.0
54.007128444 4542.0
54.140818536 4491.0
54.274508628 4453.0
54.408198720 4611.0
54.541888812 4636.0
54.675578904 4674.0
54.809268996 4978.0
54.942959089 5102.0
55.076649181 5363.0
55.210339273 5401.0
55.344029365 5418.0
55.477719457 5515.0
55.611409549 5942.0
55.745099641 6468.0
55.878789733 5947.0
56.012479825 5707.0
56.146169917 5813.0
56.279860010 5962.0
56.413550102 6059.0
56.547240194 6098.0
56.680930286 5936.0
56.814620378 6148.0
56.948310470 6500.0
57.082000562 6051.0
57.215690654 5542.0
57.349380746 5496.0
57.483070838 5259.0
57.616760931 5116.0
57.750451023 5018.0
57.884141115 5029.0
58.017831207 5121.0
58.151521299 5518.0
58.285211391 6121.0
58.418901483 5848.0
58.552591575 5660.0
58.686281667 5167.0
58.819971760 4978.0
58.953661852 5080.0
59.087351944 5237.0
59.221042036 5395.0
59.354732128 5917.0
59.488422220 5707.0
59.622112312 5571.0
59.755802404 5092.0
59.889492496 4780.0
60.023182588 4555.0
60.156872681 4487.0
60.290562773 4506.0
60.424252865 4429.0
60.557942957 4279.0
60.691633049 4618.0
60.825323141 4734.0
60.959013233 4829.0
61.092703325 5080.0
61.226393417 5319.0
61.360083509 5610.0
61.493773602 5838.0
61.627463694 6144.0
61.761153786 6428.0
61.894843878 6346.0
62.028533970 5816.0
62.162224062 5088.0
62.295914154 4960.0
62.429604246 4764.0
62.563294338 4723.0
62.696984430 4545.0
62.830674523 4498.0
62.964364615 4605.0
63.098054707 4745.0
63.231744799 4795.0
63.365434891 4713.0
63.499124983 4747.0
63.632815075 4705.0
63.766505167 4635.0
63.900195259 4675.0
64.033885351 4698.0
64.167575444 4668.0
64.301265536 4442.0
64.434955628 4653.0
64.568645720 4696.0
64.702335812 4705.0
64.836025904 4961.0
64.969715996 5096.0
65.103406088 5083.0
65.237096180 5144.0
65.370786272 5061.0
65.504476365 4777.0
65.638166457 5005.0
65.771856549 4959.0
65.905546641 4905.0
66.039236733 5062.0
66.172926825 5101.0
66.306616917 4873.0
66.440307009 5032.0
66.573997101 4960.0
66.707687194 5028.0
66.841377286 4847.0
66.975067378 5000.0
67.108757470 5082.0
67.242447562 5152.0
67.376137654 5229.0
67.509827746 5544.0
67.643517838 5445.0
67.777207930 5764.0
67.910898022 5698.0
68.044588115 5948.0
68.178278207 6016.0
68.311968299 6252.0
68.445658391 6221.0
68.579348483 5967.0
68.713038575 5707.0
68.846728667 5649.0
68.980418759 5768.0
69.114108851 6225.0
69.247798943 6029.0
69.381489036 5876.0
69.515179128 5835.0
69.648869220 5987.0
69.782559312 5995.0
69.916249404 6235.0
70.049939496 6302.0
70.183629588 6301.0
70.317319680 5848.0
70.451009772 5850.0
70.584699864 5525.0
70.718389957 5391.0
70.852080049 5290.0
70.985770141 5273.0
71.119460233 5470.0
71.253150325 5350.0
71.386840417 5323.0
71.520530509 5182.0
71.654220601 5490.0
71.787910693 5784.0
71.921600785 5887.0
72.055290878 6017.0
72.188980970 6032.0
72.322671062 6016.0
72.456361154 6021.0
72.590051246 6101.0
72.723741338 6002.0
72.857431430 6293.0
72.991121522 6300.0
73.124811614 6087.0
73.258501706 6304.0
73.392191799 5927.0
73.525881891 5818.0
73.659571983 5944.0
73.793262075 5908.0
73.926952167 5879.0
74.060642259 5872.0
74.194332351 5650.0
74.328022443 5910.0
74.461712535 5748.0
74.595402628 5953.0
74.729092720 5995.0
74.862782812 6003.0
74.996472904 6035.0
75.130162996 6276.0
75.263853088 6062.0
75.397543180 5944.0
75.531233272 5723.0
75.664923364 5751.0
75.798613456 5698.0
75.932303549 5582.0
76.065993641 5650.0
76.199683733 5542.0
76.333373825 5483.0
76.467063917 5612.0
76.600754009 5552.0
76.734444101 5745.0
76.868134193 5675.0
77.001824285 5756.0
77.135514377 5885.0
77.269204470 6170.0
77.402894562 6208.0
77.536584654 6344.0
77.670274746 6604.0
77.803964838 6611.0
77.937654930 6665.0
78.071345022 6545.0
78.205035114 6333.0
78.338725206 6341.0
78.472415298 6777.0
78.606105391 7298.0
78.739795483 7182.0
78.873485575 6816.0
79.007175667 6563.0
79.140865759 6357.0
79.274555851 6337.0
79.408245943 6127.0
79.541936035 6207.0
79.675626127 6181.0
79.809316219 6145.0
79.943006312 6193.0
80.076696404 6334.0
80.210386496 6390.0
80.344076588 6508.0
80.477766680 6340.0
80.611456772 6488.0
80.745146864 6438.0
80.878836956 6661.0
81.012527048 6589.0
81.146217140 6641.0
81.279907233 6884.0
81.413597325 7300.0
81.547287417 7450.0
81.680977509 7331.0
81.814667601 7206.0
81.948357693 7263.0
82.082047785 7114.0
82.215737877 7042.0
82.349427969 6803.0
82.483118062 6709.0
82.616808154 6541.0
82.750498246 6673.0
82.884188338 6418.0
83.017878430 6530.0
83.151568522 6338.0
83.285258614 6330.0
83.418948706 6394.0
83.552638798 6559.0
83.686328890 6749.0
83.820018983 6715.0
83.953709075 6470.0
84.087399167 6533.0
84.221089259 6379.0
84.354779351 6461.0
84.488469443 6345.0
84.622159535 6261.0
84.755849627 6272.0
84.889539719 6342.0
85.023229811 6335.0
85.156919904 6293.0
85.290609996 6486.0
85.424300088 6669.0
85.557990180 6581.0
85.691680272 6640.0
85.825370364 6738.0
85.959060456 6682.0
86.092750548 6813.0
86.226440640 6501.0
86.360130732 6522.0
86.493820825 6316.0
86.627510917 6445.0
86.761201009 6414.0
86.894891101 6477.0
87.028581193 6578.0
87.162271285 6424.0
87.295961377 6434.0
87.429651469 6427.0
87.563341561 6394.0
87.697031653 6371.0
87.830721746 6317.0
87.964411838 6410.0
88.098101930 6412.0
88.231792022 6383.0
88.365482114 6376.0
88.499172206 6447.0
88.632862298 6623.0
88.766552390 6561.0
88.900242482 6782.0
89.033932574 6856.0
89.167622667 7098.0
89.301312759 7051.0
89.435002851 7191.0
89.568692943 7352.0
89.702383035 7370.0
89.836073127 7176.0
89.969763219 7177.0
90.103453311 7195.0
90.237143403 7070.0
90.370833496 7105.0
90.504523588 7028.0
90.638213680 6868.0
90.771903772 6900.0
90.905593864 6733.0
91.039283956 6927.0
91.172974048 7114.0
91.306664140 7147.0
91.440354232 7331.0
91.574044324 6900.0
91.707734417 7022.0
91.841424509 6804.0
91.975114601 6749.0
92.108804693 6720.0
92.242494785 6731.0
92.376184877 6813.0
92.509874969 6677.0
92.643565061 6843.0
92.777255153 6796.0
92.910945245 6936.0
93.044635338 7047.0
93.178325430 6916.0
93.312015522 7102.0
93.445705614 7021.0
93.579395706 6863.0
93.713085798 6949.0
93.846775890 6835.0
93.980465982 6780.0
94.114156074 6817.0
94.247846166 6877.0
94.381536259 7173.0
94.515226351 7217.0
94.648916443 7310.0
94.782606535 7244.0
94.916296627 7172.0
95.049986719 7186.0
95.183676811 6841.0
95.317366903 7304.0
95.451056995 7216.0
95.584747087 7333.0
95.718437180 7403.0
95.852127272 7373.0
95.985817364 7392.0
96.119507456 7294.0
96.253197548 7389.0
96.386887640 7325.0
96.520577732 7436.0
96.654267824 7394.0
96.787957916 7618.0
96.921648009 7457.0
97.055338101 7234.0
97.189028193 7313.0
97.322718285 6981.0
97.456408377 7000.0
97.590098469 7082.0
97.723788561 7197.0
97.857478653 7164.0
97.991168745 7203.0
98.124858837 7229.0
98.258548930 7224.0
98.392239022 7365.0
98.525929114 7252.0
98.659619206 7355.0
98.793309298 7160.0
98.926999390 7387.0
99.060689482 7200.0
99.194379574 7519.0
99.328069666 7333.0
99.461759758 7389.0
99.595449851 7181.0
99.729139943 7233.0
99.862830035 7144.0
99.996520127 7352.0
100.130210219 7451.0
100.263900311 7647.0
100.397590403 7579.0
100.531280495 7535.0
100.664970587 7594.0
100.798660679 7674.0
100.932350772 7706.0
101.066040864 7734.0
101.199730956 7817.0
101.333421048 7804.0
101.467111140 7719.0
101.600801232 7825.0
101.734491324 7941.0
101.868181416 7886.0
102.001871508 7821.0
102.135561600 7851.0
102.269251693 7738.0
102.402941785 7807.0
102.536631877 7552.0
102.670321969 7661.0
102.804012061 7720.0
102.937702153 7530.0
103.071392245 7568.0
103.205082337 7705.0
103.338772429 7567.0
103.472462521 7519.0
103.606152614 7897.0
103.739842706 7783.0
103.873532798 7611.0
104.007222890 7590.0
104.140912982 7570.0
104.274603074 7595.0
104.408293166 7486.0
104.541983258 7540.0
104.675673350 7495.0
104.809363443 7393.0
104.943053535 7493.0
105.076743627 7334.0
105.210433719 7349.0
105.344123811 7509.0
105.477813903 7717.0
105.611503995 7635.0
105.745194087 7807.0
105.878884179 7696.0
106.012574271 7706.0
106.146264364 7628.0
106.279954456 7699.0
106.413644548 7748.0
106.547334640 7819.0
106.681024732 7899.0
106.814714824 7884.0
106.948404916 7787.0
107.082095008 7849.0
107.215785100 7731.0
107.349475192 7876.0
107.483165285 7824.0
107.616855377 7980.0
107.750545469 7920.0
107.884235561 7922.0
108.017925653 7953.0
108.151615745 8050.0
108.285305837 7914.0
108.418995929 7758.0
108.552686021 7873.0
108.686376113 7849.0
108.820066206 8009.0
108.953756298 7829.0
109.087446390 7848.0
109.221136482 7930.0
109.354826574 7987.0
109.488516666 7894.0
109.622206758 7806.0
109.755896850 7887.0
109.889586942 8059.0
110.023277034 7950.0
110.156967127 8067.0
110.290657219 7867.0
110.424347311 8119.0
110.558037403 8073.0
110.691727495 7928.0
110.825417587 8009.0
110.959107679 8050.0
111.092797771 8031.0
111.226487863 8251.0
111.360177955 8009.0
111.493868048 8150.0
111.627558140 8235.0
111.761248232 8398.0
111.894938324 8242.0
112.028628416 8542.0
112.162318508 8284.0
112.296008600 8436.0
112.429698692 8424.0
112.563388784 8431.0
112.697078877 8549.0
112.830768969 8412.0
112.964459061 9017.0
113.098149153 9262.0
113.231839245 9313.0
113.365529337 9101.0
113.499219429 9430.0
113.632909521 9336.0
113.766599613 9369.0
113.900289705 9046.0
114.033979798 9020.0
114.167669890 9051.0
114.301359982 8819.0
114.435050074 8812.0
114.568740166 8948.0
114.702430258 8747.0
114.836120350 8691.0
114.969810442 8517.0
115.103500534 8408.0
115.237190626 8500.0
115.370880719 8675.0
115.504570811 8526.0
115.638260903 8681.0
115.771950995 8569.0
115.905641087 8665.0
116.039331179 8874.0
116.173021271 8867.0
116.306711363 8729.0
116.440401455 8668.0
116.574091547 8807.0
116.707781640 8875.0
116.841471732 8998.0
116.975161824 8964.0
117.108851916 8962.0
117.242542008 9064.0
117.376232100 9063.0
117.509922192 9026.0
117.643612284 9069.0
117.777302376 9030.0
117.910992468 9010.0
118.044682561 9307.0
118.178372653 9192.0
118.312062745 9551.0
118.445752837 9687.0
118.579442929 9537.0
118.713133021 9675.0
118.846823113 9754.0
118.980513205 9617.0
119.114203297 9606.0
119.247893389 9430.0
119.381583482 9251.0
119.515273574 9260.0
119.648963666 9139.0
119.782653758 9016.0
119.916343850 9044.0
