20.075200670 896.0
20.225602005 820.0
20.376003341 864.0
20.526404676 924.0
20.676806012 906.0
20.827207347 897.0
20.977608683 870.0
21.128010018 917.0
21.278411354 902.0
21.428812689 903.0
21.579214025 922.0
21.729615360 1019.0
21.880016696 1044.0
22.030418031 1128.0
22.180819367 1024.0
22.331220702 949.0
22.481622038 973.0
22.632023373 953.0
22.782424709 948.0
22.932826044 983.0
23.083227380 929.0
23.233628715 936.0
23.384030051 968.0
23.534431386 930.0
23.684832722 924.0
23.835234057 955.0
23.985635393 945.0
24.136036728 976.0
24.286438064 1015.0
24.436839399 959.0
24.587240735 1009.0
24.737642070 987.0
24.888043406 978.0
25.038444741 1008.0
25.188846077 958.0
25.339247412 1013.0
25.489648748 1045.0
25.640050083 986.0
25.790451419 983.0
25.940852754 1065.0
26.091254090 1049.0
26.241655425 1024.0
26.392056761 997.0
26.542458096 1061.0
26.692859432 1008.0
26.843260767 1063.0
26.993662103 1130.0
27.144063438 1046.0
27.294464774 1033.0
27.444866109 1107.0
27.595267445 989.0
27.745668780 1051.0
27.896070116 1130.0
28.046471451 1097.0
28.196872787 1181.0
28.347274122 1252.0
28.497675458 1481.0
28.648076793 1839.0
28.798478129 2727.0
28.948879464 4251.0
29.099280800 4755.0
29.249682135 4116.0
29.400083471 2773.0
29.550484806 1914.0
29.700886142 2244.0
29.851287477 3364.0
30.001688813 2853.0
30.152090148 1633.0
30.302491484 1291.0
30.452892819 1204.0
30.603294155 1135.0
30.753695490 1235.0
30.904096826 1214.0
31.054498161 1239.0
31.204899497 1240.0
31.355300832 1208.0
31.505702168 1337.0
31.656103503 1464.0
31.806504839 1666.0
31.956906174 2065.0
32.107307510 3120.0
32.257708845 4953.0
32.408110181 5583.0
32.558511516 4442.0
32.708912852 2660.0
32.859314187 1747.0
33.009715523 1853.0
33.160116858 2631.0
33.310518194 3989.0
33.460919529 4313.0
33.611320865 3821.0
33.761722200 2960.0
33.912123536 2189.0
34.062524871 2027.0
34.212926207 2024.0
34.363327542 1530.0
34.513728878 1371.0
34.664130213 1363.0
34.814531549 1351.0
34.964932884 1281.0
35.115334220 1306.0
35.265735555 1285.0
35.416136891 1444.0
35.566538226 1567.0
35.716939562 1673.0
35.867340897 1646.0
36.017742233 1558.0
36.168143568 1434.0
36.318544904 1283.0
36.468946239 1262.0
36.619347575 1272.0
36.769748910 1226.0
36.920150246 1294.0
37.070551581 1173.0
37.220952917 1269.0
37.371354252 1324.0
37.521755588 1185.0
37.672156923 1295.0
37.822558259 1200.0
37.972959594 1269.0
38.123360930 1208.0
38.273762265 1269.0
38.424163601 1305.0
38.574564936 1349.0
38.724966272 1265.0
38.875367607 1246.0
39.025768943 1287.0
39.176170278 1239.0
39.326571614 1292.0
39.476972949 1330.0
39.627374285 1325.0
39.777775620 1332.0
39.928176956 1314.0
40.078578291 1367.0
40.228979627 1303.0
40.379380962 1411.0
40.529782298 1399.0
40.680183633 1487.0
40.830584969 1574.0
40.980986304 1925.0
41.131387640 2437.0
41.281788975 2486.0
41.432190311 2433.0
41.582591646 2179.0
41.732992982 1845.0
41.883394317 1711.0
42.033795653 1763.0
42.184196988 2061.0
42.334598324 2984.0
42.484999659 4357.0
42.635400995 5130.0
42.785802330 4554.0
42.936203666 3838.0
43.086605001 2535.0
43.237006337 2155.0
43.387407672 2176.0
43.537809008 2775.0
43.688210343 4098.0
43.838611679 7040.0
43.989013014 8410.0
44.139414350 8193.0
44.289815685 7607.0
44.440217021 6230.0
44.590618356 4401.0
44.741019692 3503.0
44.891421027 2752.0
45.041822363 2278.0
45.192223698 1906.0
45.342625034 1753.0
45.493026369 1615.0
45.643427705 1597.0
45.793829040 1597.0
45.944230376 1561.0
46.094631711 1485.0
46.245033047 1555.0
46.395434382 1484.0
46.545835718 1600.0
46.696237053 1572.0
46.846638389 1609.0
46.997039724 1665.0
47.147441060 1623.0
47.297842395 1569.0
47.448243731 1551.0
47.598645066 1609.0
47.749046402 1609.0
47.899447737 1746.0
48.049849073 1821.0
48.200250408 2370.0
48.350651744 2698.0
48.501053079 2782.0
48.651454415 2376.0
48.801855750 1999.0
48.952257086 1810.0
49.102658421 1616.0
49.253059757 1610.0
49.403461092 1750.0
49.553862428 1713.0
49.704263763 1746.0
49.854665099 1858.0
50.005066434 1960.0
50.155467770 2153.0
50.305869105 2451.0
50.456270441 2742.0
50.606671776 3168.0
50.757073112 3679.0
50.907474447 3954.0
51.057875783 4032.0
51.208277118 3933.0
51.358678454 4014.0
51.509079789 4202.0
51.659481125 4409.0
51.809882460 4394.0
51.960283796 4215.0
52.110685131 4094.0
52.261086467 4069.0
52.411487802 4005.0
52.561889138 3793.0
52.712290473 3378.0
52.862691809 2642.0
53.013093144 2158.0
53.163494480 1952.0
53.313895815 1743.0
53.464297151 1609.0
53.614698486 1626.0
53.765099822 1637.0
53.915501157 1651.0
54.065902493 1599.0
54.216303828 1581.0
54.366705164 1571.0
54.517106499 1618.0
54.667507835 1665.0
54.817909170 1683.0
54.968310506 1594.0
55.118711841 1555.0
55.269113177 1672.0
55.419514512 1710.0
55.569915848 1649.0
55.720317183 1800.0
55.870718519 1738.0
56.021119854 1821.0
56.171521190 1823.0
56.321922525 1884.0
56.472323861 1953.0
56.622725196 2096.0
56.773126532 2221.0
56.923527867 2152.0
57.073929203 2133.0
57.224330538 1982.0
57.374731874 1875.0
57.525133209 1868.0
57.675534545 1766.0
57.825935880 1857.0
57.976337216 1912.0
58.126738551 1946.0
58.277139887 1977.0
58.427541222 1939.0
58.577942558 1978.0
58.728343893 1960.0
58.878745229 1907.0
59.029146564 1966.0
59.179547900 1917.0
59.329949235 1906.0
59.480350571 1921.0
59.630751906 1969.0
59.781153242 2012.0
59.931554577 2064.0
60.081955913 2077.0
60.232357248 2115.0
60.382758584 2068.0
60.533159919 2132.0
60.683561255 2133.0
60.833962590 2099.0
60.984363926 2126.0
61.134765261 2208.0
61.285166597 2340.0
61.435567932 2482.0
61.585969268 2457.0
61.736370603 2595.0
61.886771939 2477.0
62.037173274 2573.0
62.187574610 2473.0
62.337975945 2514.0
62.488377281 2517.0
62.638778616 2455.0
62.789179952 2409.0
62.939581287 2490.0
63.089982623 2394.0
63.240383958 2325.0
63.390785294 2416.0
63.541186629 2420.0
63.691587965 2192.0
63.841989300 2234.0
63.992390636 2389.0
64.142791971 2385.0
64.293193307 2431.0
64.443594642 2491.0
64.593995978 2387.0
64.744397313 2435.0
64.894798649 2394.0
65.045199984 2315.0
65.195601320 2211.0
65.346002655 2250.0
65.496403991 2308.0
65.646805326 2334.0
65.797206662 2203.0
65.947607997 2271.0
66.098009333 2287.0
66.248410668 2374.0
66.398812004 2290.0
66.549213339 2570.0
66.699614675 2620.0
66.850016010 2726.0
67.000417346 2867.0
67.150818681 3259.0
67.301220017 3681.0
67.451621352 4023.0
67.602022688 4259.0
67.752424023 3989.0
67.902825359 3758.0
68.053226694 3520.0
68.203628030 3149.0
68.354029365 2878.0
68.504430701 2706.0
68.654832036 2710.0
68.805233372 2881.0
68.955634707 2942.0
69.106036043 3078.0
69.256437378 3338.0
69.406838714 3702.0
69.557240049 4113.0
69.707641385 4415.0
69.858042720 4896.0
70.008444055 5115.0
70.158845391 5153.0
70.309246726 4740.0
70.459648062 4345.0
70.610049397 4150.0
70.760450733 3711.0
70.910852068 3134.0
71.061253404 2842.0
71.211654739 2744.0
71.362056075 2812.0
71.512457410 2730.0
71.662858746 2614.0
71.813260081 2558.0
71.963661417 2773.0
72.114062752 2817.0
72.264464088 2846.0
72.414865423 3004.0
72.565266759 3511.0
72.715668094 3791.0
72.866069430 3732.0
73.016470765 3545.0
73.166872101 3614.0
73.317273436 3527.0
73.467674772 3463.0
73.618076107 3358.0
73.768477443 3258.0
73.918878778 3126.0
74.069280114 3036.0
74.219681449 2800.0
74.370082785 2957.0
74.520484120 3340.0
74.670885456 3472.0
74.821286791 3896.0
74.971688127 4169.0
75.122089462 4593.0
75.272490798 4816.0
75.422892133 4909.0
75.573293469 4828.0
75.723694804 4448.0
75.874096140 4414.0
76.024497475 3929.0
76.174898811 3569.0
76.325300146 3338.0
76.475701482 3255.0
76.626102817 3111.0
76.776504153 2985.0
76.926905488 2745.0
77.077306824 2967.0
77.227708159 2915.0
77.378109495 2803.0
77.528510830 2739.0
77.678912166 2772.0
77.829313501 2974.0
77.979714837 2782.0
78.130116172 2666.0
78.280517508 2676.0
78.430918843 2863.0
78.581320179 2737.0
78.731721514 2845.0
78.882122850 2799.0
79.032524185 2811.0
79.182925521 3011.0
79.333326856 2968.0
79.483728192 2947.0
79.634129527 3093.0
79.784530863 3059.0
79.934932198 3061.0
80.085333534 2970.0
80.235734869 3012.0
80.386136205 3120.0
80.536537540 3016.0
80.686938876 3191.0
80.837340211 3032.0
80.987741547 3246.0
81.138142882 3237.0
81.288544218 3246.0
81.438945553 3405.0
81.589346889 3460.0
81.739748224 3969.0
81.890149560 4347.0
82.040550895 4403.0
82.190952231 4772.0
82.341353566 4640.0
82.491754902 4225.0
82.642156237 3911.0
82.792557573 3598.0
82.942958908 3534.0
83.093360244 3335.0
83.243761579 3286.0
83.394162915 3092.0
83.544564250 3175.0
83.694965586 3183.0
83.845366921 3230.0
83.995768257 3150.0
84.146169592 3185.0
84.296570928 3322.0
84.446972263 3265.0
84.597373599 3317.0
84.747774934 3288.0
84.898176270 3286.0
85.048577605 3451.0
85.198978941 3529.0
85.349380276 3382.0
85.499781612 3467.0
85.650182947 3485.0
85.800584283 3350.0
85.950985618 3180.0
86.101386954 3327.0
86.251788289 3322.0
86.402189625 3257.0
86.552590960 3261.0
86.702992296 3200.0
86.853393631 3359.0
87.003794967 3378.0
87.154196302 3427.0
87.304597638 3649.0
87.454998973 3620.0
87.605400309 3954.0
87.755801644 4435.0
87.906202980 4582.0
88.056604315 4747.0
88.207005651 4936.0
88.357406986 5058.0
88.507808322 5140.0
88.658209657 5249.0
88.808610993 5531.0
88.959012328 5553.0
89.109413664 5583.0
89.259814999 5327.0
89.410216335 4812.0
89.560617670 4665.0
89.711019006 4480.0
89.861420341 4563.0
90.011821677 4321.0
90.162223012 4500.0
90.312624348 4628.0
90.463025683 4785.0
90.613427019 4717.0
90.763828354 4759.0
90.914229690 4875.0
91.064631025 4747.0
91.215032361 4622.0
91.365433696 4433.0
91.515835032 4150.0
91.666236367 4284.0
91.816637703 4041.0
91.967039038 3825.0
92.117440374 3806.0
92.267841709 3619.0
92.418243045 3687.0
92.568644380 3487.0
92.719045716 3419.0
92.869447051 3431.0
93.019848387 3352.0
93.170249722 3435.0
93.320651058 3274.0
93.471052393 3356.0
93.621453729 3504.0
93.771855064 3434.0
93.922256400 3368.0
94.072657735 3437.0
94.223059071 3472.0
94.373460406 3473.0
94.523861742 3428.0
94.674263077 3429.0
94.824664413 3504.0
94.975065748 3530.0
95.125467084 3458.0
95.275868419 3429.0
95.426269755 3425.0
95.576671090 3438.0
95.727072426 3622.0
95.877473761 3471.0
96.027875097 3581.0
96.178276432 3681.0
96.328677768 3688.0
96.479079103 3694.0
96.629480439 3758.0
96.779881774 3689.0
96.930283110 3818.0
97.080684445 3938.0
97.231085781 3713.0
97.381487116 3649.0
97.531888452 3684.0
97.682289787 3808.0
97.832691123 3664.0
97.983092458 3742.0
98.133493794 3775.0
98.283895129 3575.0
98.434296465 3715.0
98.584697800 3633.0
98.735099136 3694.0
98.885500471 3724.0
99.035901807 3707.0
99.186303142 3591.0
99.336704478 3654.0
99.487105813 3616.0
99.637507149 3774.0
99.787908484 3693.0
99.938309820 3781.0
100.088711155 4015.0
100.239112491 4088.0
100.389513826 4176.0
100.539915162 4325.0
100.690316497 4333.0
100.840717833 4376.0
100.991119168 4478.0
101.141520504 4318.0
101.291921839 4409.0
101.442323175 4428.0
101.592724510 4428.0
101.743125846 4225.0
101.893527181 4282.0
102.043928517 4255.0
102.194329852 4051.0
102.344731188 4000.0
102.495132523 3953.0
102.645533859 4059.0
102.795935194 4047.0
102.946336530 4301.0
103.096737865 4305.0
103.247139201 4238.0
103.397540536 4304.0
103.547941872 4497.0
103.698343207 4322.0
103.848744543 4302.0
103.999145878 4260.0
104.149547214 4341.0
104.299948549 4265.0
104.450349885 4207.0
104.600751220 4337.0
104.751152556 4354.0
104.901553891 4301.0
105.051955227 4271.0
105.202356562 4148.0
105.352757898 4197.0
105.503159233 4440.0
105.653560569 4238.0
105.803961904 4250.0
105.954363240 4457.0
106.104764575 4233.0
106.255165911 4344.0
106.405567246 4151.0
106.555968582 4142.0
106.706369917 4313.0
106.856771253 4245.0
107.007172588 4117.0
107.157573924 4087.0
107.307975259 4231.0
107.458376595 4234.0
107.608777930 4088.0
107.759179266 4131.0
107.909580601 4393.0
108.059981937 4494.0
108.210383272 4447.0
108.360784608 4334.0
108.511185943 4522.0
108.661587279 4641.0
108.811988614 4648.0
108.962389950 4379.0
109.112791285 4424.0
109.263192621 4506.0
109.413593956 4507.0
109.563995292 4453.0
109.714396627 4346.0
109.864797963 4277.0
110.015199298 4385.0
110.165600634 4459.0
110.316001969 4346.0
110.466403305 4301.0
110.616804640 4446.0
110.767205976 4302.0
110.917607311 4363.0
111.068008647 4337.0
111.218409982 4446.0
111.368811318 4433.0
111.519212653 4413.0
111.669613989 4472.0
111.820015324 4566.0
111.970416660 4767.0
112.120817995 4801.0
112.271219331 4891.0
112.421620666 4998.0
112.572022002 5129.0
112.722423337 5077.0
112.872824673 5160.0
113.023226008 5061.0
113.173627344 5187.0
113.324028679 5098.0
113.474430015 5181.0
113.624831350 4954.0
113.775232686 5050.0
113.925634021 4866.0
114.076035357 5053.0
114.226436692 4932.0
114.376838028 4831.0
114.527239363 4915.0
114.677640699 4637.0
114.828042034 4772.0
114.978443370 4685.0
115.128844705 4754.0
115.279246041 4597.0
115.429647376 4626.0
115.580048712 4552.0
115.730450047 4755.0
115.880851383 4565.0
116.031252718 4665.0
116.181654054 4606.0
116.332055389 4657.0
116.482456725 4847.0
116.632858060 4665.0
116.783259396 4781.0
116.933660731 4663.0
117.084062067 4881.0
117.234463402 4753.0
117.384864738 4828.0
117.535266073 4858.0
117.685667409 4774.0
117.836068744 4971.0
117.986470080 5104.0
118.136871415 5155.0
118.287272751 4983.0
118.437674086 5189.0
118.588075422 5247.0
118.738476757 5149.0
118.888878093 5016.0
119.039279428 5037.0
119.189680764 5172.0
119.340082099 5204.0
119.490483435 5018.0
119.640884770 5203.0
