30.066845050 407.0
30.200535142 430.0
30.334225234 431.0
30.467915326 406.0
30.601605418 406.0
30.735295511 396.0
30.868985603 355.0
31.002675695 394.0
31.136365787 432.0
31.270055879 418.0
31.403745971 513.0
31.537436063 656.0
31.671126155 482.0
31.804816247 451.0
31.938506339 364.0
32.072196432 399.0
32.205886524 370.0
32.339576616 449.0
32.473266708 432.0
32.606956800 367.0
32.740646892 458.0
32.874336984 365.0
33.008027076 407.0
33.141717168 412.0
33.275407260 401.0
33.409097353 387.0
33.542787445 420.0
33.676477537 395.0
33.810167629 349.0
33.943857721 372.0
34.077547813 388.0
34.211237905 399.0
34.344927997 376.0
34.478618089 402.0
34.612308181 426.0
34.745998274 423.0
34.879688366 384.0
35.013378458 400.0
35.147068550 419.0
35.280758642 418.0
35.414448734 426.0
35.548138826 434.0
35.681828918 405.0
35.815519010 406.0
35.949209102 410.0
36.082899195 362.0
36.216589287 364.0
36.350279379 396.0
36.483969471 443.0
36.617659563 412.0
36.751349655 375.0
36.885039747 448.0
37.018729839 437.0
37.152419931 432.0
37.286110023 409.0
37.419800116 395.0
37.553490208 419.0
37.687180300 439.0
37.820870392 422.0
37.954560484 452.0
38.088250576 482.0
38.221940668 555.0
38.355630760 599.0
38.489320852 631.0
38.623010945 670.0
38.756701037 814.0
38.890391129 1121.0
39.024081221 1855.0
39.157771313 3575.0
39.291461405 6844.0
39.425151497 10655.0
39.558841589 9414.0
39.692531681 4873.0
39.826221773 2445.0
39.959911866 1482.0
40.093601958 989.0
40.227292050 777.0
40.360982142 681.0
40.494672234 648.0
40.628362326 603.0
40.762052418 587.0
40.895742510 536.0
41.029432602 474.0
41.163122694 476.0
41.296812787 513.0
41.430502879 495.0
41.564192971 422.0
41.697883063 465.0
41.831573155 474.0
41.965263247 454.0
42.098953339 467.0
42.232643431 472.0
42.366333523 449.0
42.500023615 431.0
42.633713708 501.0
42.767403800 418.0
42.901093892 462.0
43.034783984 422.0
43.168474076 468.0
43.302164168 502.0
43.435854260 446.0
43.569544352 440.0
43.703234444 450.0
43.836924536 401.0
43.970614629 487.0
44.104304721 504.0
44.237994813 507.0
44.371684905 566.0
44.505374997 511.0
44.639065089 635.0
44.772755181 684.0
44.906445273 752.0
45.040135365 922.0
45.173825457 1126.0
45.307515550 1643.0
45.441205642 2323.0
45.574895734 3334.0
45.708585826 4352.0
45.842275918 4142.0
45.975966010 3175.0
46.109656102 1994.0
46.243346194 1448.0
46.377036286 949.0
46.510726379 807.0
46.644416471 623.0
46.778106563 606.0
46.911796655 588.0
47.045486747 580.0
47.179176839 524.0
47.312866931 496.0
47.446557023 426.0
47.580247115 457.0
47.713937207 458.0
47.847627300 433.0
47.981317392 430.0
48.115007484 444.0
48.248697576 437.0
48.382387668 427.0
48.516077760 385.0
48.649767852 381.0
48.783457944 385.0
48.917148036 392.0
49.050838128 401.0
49.184528221 390.0
49.318218313 339.0
49.451908405 405.0
49.585598497 388.0
49.719288589 419.0
49.852978681 435.0
49.986668773 396.0
50.120358865 397.0
50.254048957 419.0
50.387739049 407.0
50.521429142 382.0
50.655119234 412.0
50.788809326 395.0
50.922499418 394.0
51.056189510 421.0
51.189879602 385.0
51.323569694 362.0
51.457259786 397.0
51.590949878 353.0
51.724639970 360.0
51.858330063 368.0
51.992020155 367.0
52.125710247 370.0
52.259400339 405.0
52.393090431 432.0
52.526780523 552.0
52.660470615 681.0
52.794160707 589.0
52.927850799 451.0
53.061540891 371.0
53.195230984 401.0
53.328921076 449.0
53.462611168 353.0
53.596301260 361.0
53.729991352 409.0
53.863681444 377.0
53.997371536 392.0
54.131061628 342.0
54.264751720 389.0
54.398441813 359.0
54.532131905 427.0
54.665821997 443.0
54.799512089 394.0
54.933202181 444.0
55.066892273 464.0
55.200582365 371.0
55.334272457 405.0
55.467962549 408.0
55.601652641 423.0
55.735342734 452.0
55.869032826 422.0
56.002722918 440.0
56.136413010 479.0
56.270103102 469.0
56.403793194 464.0
56.537483286 505.0
56.671173378 431.0
56.804863470 497.0
56.938553562 528.0
57.072243655 536.0
57.205933747 513.0
57.339623839 524.0
57.473313931 558.0
57.607004023 524.0
57.740694115 521.0
57.874384207 554.0
58.008074299 531.0
58.141764391 557.0
58.275454483 488.0
58.409144576 568.0
58.542834668 541.0
58.676524760 532.0
58.810214852 520.0
58.943904944 539.0
59.077595036 530.0
59.211285128 609.0
59.344975220 591.0
59.478665312 572.0
59.612355404 555.0
59.746045497 564.0
59.879735589 614.0
60.013425681 606.0
60.147115773 647.0
60.280805865 612.0
60.414495957 641.0
60.548186049 669.0
60.681876141 621.0
60.815566233 561.0
60.949256326 665.0
61.082946418 700.0
61.216636510 661.0
61.350326602 690.0
61.484016694 704.0
61.617706786 648.0
61.751396878 659.0
61.885086970 699.0
62.018777062 689.0
62.152467154 672.0
62.286157247 704.0
62.419847339 738.0
62.553537431 866.0
62.687227523 853.0
62.820917615 803.0
62.954607707 730.0
63.088297799 767.0
63.221987891 850.0
63.355677983 777.0
63.489368075 763.0
63.623058168 726.0
63.756748260 752.0
63.890438352 814.0
64.024128444 834.0
64.157818536 870.0
64.291508628 888.0
64.425198720 804.0
64.558888812 889.0
64.692578904 924.0
64.826268996 803.0
64.959959089 915.0
65.093649181 823.0
65.227339273 882.0
65.361029365 1043.0
65.494719457 921.0
65.628409549 1000.0
65.762099641 1026.0
65.895789733 1116.0
66.029479825 1279.0
66.163169917 1498.0
66.296860010 1755.0
66.430550102 2187.0
66.564240194 2773.0
66.697930286 3161.0
66.831620378 3016.0
66.965310470 2325.0
67.099000562 1962.0
67.232690654 1533.0
67.366380746 1282.0
67.500070838 1288.0
67.633760931 1105.0
67.767451023 1032.0
67.901141115 946.0
68.034831207 1025.0
68.168521299 1013.0
68.302211391 975.0
68.435901483 997.0
68.569591575 898.0
68.703281667 1004.0
68.836971760 1013.0
68.970661852 1059.0
69.104351944 1008.0
69.238042036 915.0
69.371732128 1017.0
69.505422220 1002.0
69.639112312 1143.0
69.772802404 1058.0
69.906492496 934.0
70.040182588 957.0
70.173872681 1035.0
70.307562773 1081.0
70.441252865 973.0
70.574942957 1068.0
70.708633049 986.0
70.842323141 1043.0
70.976013233 1102.0
71.109703325 1048.0
71.243393417 1094.0
71.377083509 981.0
71.510773602 987.0
71.644463694 1016.0
71.778153786 1047.0
71.911843878 1096.0
72.045533970 1021.0
72.179224062 1127.0
72.312914154 1099.0
72.446604246 1158.0
72.580294338 1021.0
72.713984430 1028.0
72.847674523 1050.0
72.981364615 1105.0
73.115054707 1195.0
73.248744799 1070.0
73.382434891 1090.0
73.516124983 1068.0
73.649815075 1135.0
73.783505167 1195.0
73.917195259 1111.0
74.050885351 1125.0
74.184575444 1139.0
74.318265536 1124.0
74.451955628 1165.0
74.585645720 1141.0
74.719335812 1113.0
74.853025904 1046.0
74.986715996 1141.0
75.120406088 1124.0
75.254096180 1201.0
75.387786272 1155.0
75.521476365 1163.0
75.655166457 1172.0
75.788856549 1289.0
75.922546641 1221.0
76.056236733 1210.0
76.189926825 1275.0
76.323616917 1195.0
76.457307009 1194.0
76.590997101 1330.0
76.724687194 1168.0
76.858377286 1285.0
76.992067378 1170.0
77.125757470 1197.0
77.259447562 1311.0
77.393137654 1371.0
77.526827746 1272.0
77.660517838 1290.0
77.794207930 1315.0
77.927898022 1387.0
78.061588115 1386.0
78.195278207 1348.0
78.328968299 1353.0
78.462658391 1378.0
78.596348483 1417.0
78.730038575 1585.0
78.863728667 1485.0
78.997418759 1581.0
79.131108851 1658.0
79.264798943 1822.0
79.398489036 2176.0
79.532179128 2437.0
79.665869220 2831.0
79.799559312 3703.0
79.933249404 4974.0
80.066939496 7233.0
80.200629588 8605.0
80.334319680 6864.0
80.468009772 5463.0
80.601699864 3647.0
80.735389957 2672.0
80.869080049 2265.0
81.002770141 1910.0
81.136460233 1770.0
81.270150325 1703.0
81.403840417 1630.0
81.537530509 1586.0
81.671220601 1497.0
81.804910693 1481.0
81.938600785 1530.0
82.072290878 1465.0
82.205980970 1516.0
82.339671062 1403.0
82.473361154 1393.0
82.607051246 1409.0
82.740741338 1371.0
82.874431430 1514.0
83.008121522 1473.0
83.141811614 1470.0
83.275501706 1597.0
83.409191799 1569.0
83.542881891 1557.0
83.676571983 1543.0
83.810262075 1582.0
83.943952167 1674.0
84.077642259 1916.0
84.211332351 2406.0
84.345022443 3002.0
84.478712535 3265.0
84.612402628 3815.0
84.746092720 3487.0
84.879782812 2711.0
85.013472904 2158.0
85.147162996 1862.0
85.280853088 1772.0
85.414543180 1554.0
85.548233272 1548.0
85.681923364 1626.0
85.815613456 1502.0
85.949303549 1379.0
86.082993641 1513.0
86.216683733 1483.0
86.350373825 1486.0
86.484063917 1448.0
86.617754009 1384.0
86.751444101 1416.0
86.885134193 1463.0
87.018824285 1475.0
87.152514377 1603.0
87.286204470 1451.0
87.419894562 1462.0
87.553584654 1470.0
87.687274746 1533.0
87.820964838 1531.0
87.954654930 1471.0
88.088345022 1401.0
88.222035114 1450.0
88.355725206 1519.0
88.489415298 1532.0
88.623105391 1527.0
88.756795483 1518.0
88.890485575 1572.0
89.024175667 1517.0
89.157865759 1569.0
89.291555851 1540.0
89.425245943 1490.0
89.558936035 1463.0
89.692626127 1577.0
89.826316219 1518.0
89.960006312 1547.0
90.093696404 1480.0
90.227386496 1513.0
90.361076588 1524.0
90.494766680 1630.0
90.628456772 1564.0
90.762146864 1452.0
90.895836956 1561.0
91.029527048 1479.0
91.163217140 1615.0
91.296907233 1643.0
91.430597325 1533.0
91.564287417 1516.0
91.697977509 1518.0
91.831667601 1527.0
91.965357693 1529.0
92.099047785 1551.0
92.232737877 1541.0
92.366427969 1588.0
92.500118062 1654.0
92.633808154 1608.0
92.767498246 1666.0
92.901188338 1598.0
93.034878430 1683.0
93.168568522 1603.0
93.302258614 1616.0
93.435948706 1625.0
93.569638798 1622.0
93.703328890 1596.0
93.837018983 1597.0
93.970709075 1663.0
94.104399167 1712.0
94.238089259 1693.0
94.371779351 1722.0
94.505469443 1737.0
94.639159535 1692.0
94.772849627 1740.0
94.906539719 1785.0
95.040229811 1641.0
95.173919904 1655.0
95.307609996 1707.0
95.441300088 1658.0
95.574990180 1721.0
95.708680272 1694.0
95.842370364 1784.0
95.976060456 1809.0
96.109750548 1712.0
96.243440640 1726.0
96.377130732 1823.0
96.510820825 1850.0
96.644510917 1720.0
96.778201009 1819.0
96.911891101 1745.0
97.045581193 1792.0
97.179271285 1770.0
97.312961377 1842.0
97.446651469 1749.0
97.580341561 1753.0
97.714031653 1765.0
97.847721746 1750.0
97.981411838 1755.0
98.115101930 1731.0
98.248792022 1734.0
98.382482114 1906.0
98.516172206 1807.0
98.649862298 1843.0
98.783552390 1723.0
98.917242482 1804.0
99.050932574 1786.0
99.184622667 1876.0
99.318312759 1819.0
99.452002851 1768.0
99.585692943 1845.0
99.719383035 1890.0
99.853073127 1877.0
99.986763219 1811.0
100.120453311 1917.0
100.254143403 1860.0
100.387833496 1992.0
100.521523588 2010.0
100.655213680 2008.0
100.788903772 1962.0
100.922593864 2011.0
101.056283956 2011.0
101.189974048 2248.0
101.323664140 2119.0
101.457354232 2124.0
101.591044324 2235.0
101.724734417 2272.0
101.858424509 2267.0
101.992114601 2196.0
102.125804693 2122.0
102.259494785 2189.0
102.393184877 2011.0
102.526874969 2117.0
102.660565061 2101.0
102.794255153 1991.0
102.927945245 2020.0
103.061635338 1995.0
103.195325430 1985.0
103.329015522 2045.0
103.462705614 2052.0
103.596395706 2018.0
103.730085798 1912.0
103.863775890 2051.0
103.997465982 2095.0
104.131156074 1968.0
104.264846166 1999.0
104.398536259 2068.0
104.532226351 2007.0
104.665916443 1961.0
104.799606535 2079.0
104.933296627 1938.0
105.066986719 1987.0
105.200676811 2046.0
105.334366903 2036.0
105.468056995 2145.0
105.601747087 2030.0
105.735437180 2189.0
105.869127272 2063.0
106.002817364 2164.0
106.136507456 2063.0
106.270197548 2129.0
106.403887640 2085.0
106.537577732 2084.0
106.671267824 2164.0
106.804957916 2079.0
106.938648009 2052.0
107.072338101 2044.0
107.206028193 2073.0
107.339718285 2119.0
107.473408377 2213.0
107.607098469 2080.0
107.740788561 2047.0
107.874478653 2143.0
108.008168745 2110.0
108.141858837 2185.0
108.275548930 2311.0
108.409239022 2098.0
108.542929114 2125.0
108.676619206 2186.0
108.810309298 2247.0
108.943999390 2291.0
109.077689482 2232.0
109.211379574 2283.0
109.345069666 2299.0
109.478759758 2235.0
109.612449851 2425.0
109.746139943 2270.0
109.879830035 2235.0
110.013520127 2333.0
110.147210219 2358.0
110.280900311 2317.0
110.414590403 2358.0
110.548280495 2325.0
110.681970587 2315.0
110.815660679 2362.0
110.949350772 2451.0
111.083040864 2398.0
111.216730956 2399.0
111.350421048 2339.0
111.484111140 2388.0
111.617801232 2420.0
111.751491324 2503.0
111.885181416 2387.0
112.018871508 2373.0
112.152561600 2390.0
112.286251693 2487.0
112.419941785 2449.0
112.553631877 2453.0
112.687321969 2471.0
112.821012061 2399.0
112.954702153 2544.0
113.088392245 2584.0
113.222082337 2515.0
113.355772429 2511.0
113.489462521 2534.0
113.623152614 2589.0
113.756842706 2584.0
113.890532798 2684.0
114.024222890 2672.0
114.157912982 2746.0
114.291603074 2841.0
114.425293166 2932.0
114.558983258 3165.0
114.692673350 3197.0
114.826363443 3338.0
114.960053535 3445.0
115.093743627 3842.0
115.227433719 4284.0
115.361123811 4714.0
115.494813903 5785.0
115.628503995 5871.0
115.762194087 5019.0
115.895884179 4514.0
116.029574271 4339.0
116.163264364 4270.0
116.296954456 3757.0
116.430644548 3378.0
116.564334640 3227.0
116.698024732 3044.0
116.831714824 2965.0
116.965404916 2974.0
117.099095008 2885.0
117.232785100 2924.0
117.366475192 2908.0
117.500165285 2786.0
117.633855377 2863.0
117.767545469 2907.0
117.901235561 2914.0
118.034925653 3090.0
118.168615745 2928.0
118.302305837 2928.0
118.435995929 2972.0
118.569686021 2958.0
118.703376113 3071.0
118.837066206 3073.0
118.970756298 3156.0
119.104446390 3308.0
119.238136482 3304.0
119.371826574 3523.0
119.505516666 3609.0
119.639206758 3713.0
119.772896850 3849.0
119.906586942 4034.0
120.040277034 4355.0
120.173967127 4671.0
120.307657219 4626.0
120.441347311 4620.0
120.575037403 4665.0
120.708727495 4396.0
120.842417587 4372.0
120.976107679 4000.0
121.109797771 3893.0
121.243487863 3589.0
121.377177955 3391.0
121.510868048 3394.0
121.644558140 3111.0
121.778248232 3084.0
121.911938324 3114.0
122.045628416 3109.0
122.179318508 3155.0
122.313008600 2995.0
122.446698692 3099.0
122.580388784 3027.0
122.714078877 2924.0
122.847768969 3003.0
122.981459061 3074.0
123.115149153 2962.0
123.248839245 2987.0
123.382529337 2976.0
123.516219429 2978.0
123.649909521 2917.0
123.783599613 2966.0
123.917289705 3008.0
124.050979798 3034.0
124.184669890 2943.0
124.318359982 3047.0
124.452050074 2918.0
124.585740166 2857.0
124.719430258 2949.0
124.853120350 2978.0
124.986810442 3005.0
125.120500534 3025.0
125.254190626 3054.0
125.387880719 3027.0
125.521570811 3063.0
125.655260903 3055.0
125.788950995 3154.0
125.922641087 3055.0
126.056331179 3114.0
126.190021271 3117.0
126.323711363 3047.0
126.457401455 3252.0
126.591091547 3026.0
126.724781640 3198.0
126.858471732 3074.0
126.992161824 3093.0
127.125851916 3058.0
127.259542008 3194.0
127.393232100 3149.0
127.526922192 3063.0
127.660612284 3168.0
127.794302376 3126.0
127.927992468 3282.0
128.061682561 3168.0
128.195372653 3190.0
128.329062745 3125.0
128.462752837 3280.0
128.596442929 3419.0
128.730133021 3253.0
128.863823113 3108.0
128.997513205 3268.0
129.131203297 3250.0
129.264893389 3272.0
129.398583482 3148.0
129.532273574 3341.0
129.665963666 3201.0
129.799653758 3207.0
129.933343850 3305.0
