10.250667440 615.0
10.752002314 620.0
11.253337188 586.0
11.754672063 592.0
12.256006937 586.0
12.757341811 618.0
13.258676685 633.0
13.760011560 654.0
14.261346434 610.0
14.762681308 618.0
15.264016182 637.0
15.765351057 590.0
16.266685931 625.0
16.768020805 661.0
17.269355679 691.0
17.770690554 648.0
18.272025428 574.0
18.773360302 603.0
19.274695176 622.0
19.776030051 628.0
20.277364925 596.0
20.778699799 642.0
21.280034673 597.0
21.781369548 575.0
22.282704422 574.0
22.784039296 536.0
23.285374170 590.0
23.786709045 527.0
24.288043919 577.0
24.789378793 525.0
25.290713667 531.0
25.792048542 609.0
26.293383416 601.0
26.794718290 977.0
27.296053164 1325.0
27.797388039 665.0
28.298722913 542.0
28.800057787 520.0
29.301392661 590.0
29.802727536 525.0
30.304062410 562.0
30.805397284 508.0
31.306732158 538.0
31.808067032 550.0
32.309401907 508.0
32.810736781 574.0
33.312071655 555.0
33.813406529 542.0
34.314741404 515.0
34.816076278 561.0
35.317411152 528.0
35.818746026 616.0
36.320080901 560.0
36.821415775 515.0
37.322750649 622.0
37.824085523 810.0
38.325420398 2235.0
38.826755272 7885.0
39.328090146 1953.0
39.829425020 926.0
40.330759895 651.0
40.832094769 654.0
41.333429643 625.0
41.834764517 586.0
42.336099392 566.0
42.837434266 608.0
43.338769140 577.0
43.840104014 534.0
44.341438889 524.0
44.842773763 568.0
45.344108637 515.0
45.845443511 586.0
46.346778386 565.0
46.848113260 542.0
47.349448134 585.0
47.850783008 913.0
48.352117883 854.0
48.853452757 602.0
49.354787631 568.0
49.856122505 677.0
50.357457379 601.0
50.858792254 556.0
51.360127128 647.0
51.861462002 607.0
52.362796876 622.0
52.864131751 619.0
53.365466625 630.0
53.866801499 671.0
54.368136373 710.0
54.869471248 857.0
55.370806122 1371.0
55.872140996 2392.0
56.373475870 1704.0
56.874810745 950.0
57.376145619 784.0
57.877480493 839.0
58.378815367 778.0
58.880150242 827.0
59.381485116 936.0
59.882819990 767.0
60.384154864 1027.0
60.885489739 844.0
61.386824613 925.0
61.888159487 1074.0
62.389494361 1001.0
62.890829236 1479.0
63.392164110 1654.0
63.893498984 1191.0
64.394833858 1119.0
64.896168733 1236.0
65.397503607 1237.0
65.898838481 1224.0
66.400173355 1195.0
66.901508230 1180.0
67.402843104 1332.0
67.904177978 1279.0
68.405512852 1607.0
68.906847727 1294.0
69.408182601 1613.0
69.909517475 3576.0
70.410852349 4931.0
70.912187223 2533.0
71.413522098 1398.0
71.914856972 1421.0
72.416191846 1620.0
72.917526720 1337.0
73.418861595 1778.0
73.920196469 1332.0
74.421531343 1296.0
74.922866217 1534.0
75.424201092 1508.0
75.925535966 1826.0
76.426870840 1594.0
76.928205714 1453.0
77.429540589 1442.0
77.930875463 1691.0
78.432210337 1747.0
78.933545211 1731.0
79.434880086 1496.0
79.936214960 1628.0
80.437549834 1788.0
80.938884708 1679.0
81.440219583 1983.0
81.941554457 1468.0
82.442889331 1771.0
82.944224205 2536.0
83.445559080 2637.0
83.946893954 2385.0
84.448228828 1610.0
84.949563702 1618.0
85.450898577 1907.0
85.952233451 1801.0
86.453568325 2125.0
86.954903199 1673.0
87.456238074 1531.0
87.957572948 1837.0
88.458907822 1912.0
88.960242696 2148.0
89.461577571 2222.0
89.962912445 1860.0
90.464247319 1900.0
90.965582193 2139.0
91.466917067 2144.0
91.968251942 2028.0
92.469586816 1666.0
92.970921690 1818.0
93.472256564 2177.0
93.973591439 2351.0
94.474926313 2795.0
94.976261187 2294.0
95.477596061 3325.0
95.978930936 7546.0
96.480265810 3455.0
96.981600684 2824.0
97.482935558 2154.0
97.984270433 1901.0
98.485605307 2313.0
98.986940181 2269.0
99.488275055 2514.0
99.989609930 2216.0
100.490944804 1935.0
100.992279678 2184.0
101.493614552 2501.0
101.994949427 2695.0
102.496284301 2438.0
102.997619175 2080.0
103.498954049 2165.0
104.000288924 2455.0
104.501623798 2626.0
105.002958672 2586.0
105.504293546 2112.0
106.005628421 2225.0
106.506963295 2567.0
107.008298169 2653.0
107.509633043 2748.0
108.010967918 2392.0
108.512302792 2412.0
109.013637666 3232.0
109.514972540 2973.0
110.016307414 2973.0
110.517642289 2366.0
111.018977163 2160.0
111.520312037 2507.0
112.021646911 2815.0
112.522981786 2974.0
113.024316660 2651.0
113.525651534 2365.0
114.026986408 2526.0
114.528321283 3019.0
115.029656157 3200.0
115.530991031 2869.0
116.032325905 2549.0
116.533660780 2498.0
117.034995654 3008.0
117.536330528 3286.0
118.037665402 3144.0
118.539000277 2707.0
119.040335151 2512.0
119.541670025 3057.0
120.043004899 3398.0
120.544339774 3389.0
121.045674648 2973.0
121.547009522 2977.0
122.048344396 3661.0
122.549679271 5048.0
123.051014145 6182.0
123.552349019 4854.0
124.053683893 3407.0
124.555018768 3201.0
125.056353642 3513.0
125.557688516 3690.0
126.059023390 3231.0
126.560358265 2861.0
127.061693139 2930.0
127.563028013 3437.0
128.064362887 3529.0
128.565697762 3386.0
129.067032636 2998.0
129.568367510 3006.0
