23.066200670 541.0
23.216602005 589.0
23.367003341 554.0
23.517404676 549.0
23.667806012 552.0
23.818207347 539.0
23.968608683 600.0
24.119010018 627.0
24.269411354 584.0
24.419812689 563.0
24.570214025 514.0
24.720615360 518.0
24.871016696 552.0
25.021418031 533.0
25.171819367 533.0
25.322220702 582.0
25.472622038 521.0
25.623023373 561.0
25.773424709 585.0
25.923826044 561.0
26.074227380 596.0
26.224628715 633.0
26.375030051 814.0
26.525431386 622.0
26.675832722 640.0
26.826234057 627.0
26.976635393 621.0
27.127036728 596.0
27.277438064 633.0
27.427839399 661.0
27.578240735 696.0
27.728642070 767.0
27.879043406 854.0
28.029444741 1008.0
28.179846077 1268.0
28.330247412 1487.0
28.480648748 1717.0
28.631050083 1723.0
28.781451419 1572.0
28.931852754 1311.0
29.082254090 1195.0
29.232655425 1059.0
29.383056761 951.0
29.533458096 915.0
29.683859431 771.0
29.834260767 767.0
29.984662102 674.0
30.135063438 692.0
30.285464773 659.0
30.435866109 609.0
30.586267444 599.0
30.736668780 550.0
30.887070115 555.0
31.037471451 512.0
31.187872786 561.0
31.338274122 554.0
31.488675457 545.0
31.639076793 588.0
31.789478128 644.0
31.939879464 588.0
32.090280799 532.0
32.240682135 551.0
32.391083470 514.0
32.541484806 541.0
32.691886141 564.0
32.842287477 521.0
32.992688812 590.0
33.143090148 547.0
33.293491483 533.0
33.443892819 517.0
33.594294154 528.0
33.744695490 501.0
33.895096825 528.0
34.045498161 514.0
34.195899496 535.0
34.346300832 556.0
34.496702167 568.0
34.647103503 532.0
34.797504838 584.0
34.947906174 528.0
35.098307509 567.0
35.248708845 565.0
35.399110180 653.0
35.549511516 813.0
35.699912851 772.0
35.850314187 770.0
36.000715522 590.0
36.151116857 604.0
36.301518193 605.0
36.451919528 713.0
36.602320864 734.0
36.752722199 811.0
36.903123535 735.0
37.053524870 842.0
37.203926206 848.0
37.354327541 888.0
37.504728877 927.0
37.655130212 861.0
37.805531548 1155.0
37.955932883 1349.0
38.106334219 1786.0
38.256735554 2731.0
38.407136890 4657.0
38.557538225 6994.0
38.707939561 5899.0
38.858340896 3499.0
39.008742232 2236.0
39.159143567 1692.0
39.309544903 1612.0
39.459946238 1806.0
39.610347574 2222.0
39.760748909 2550.0
39.911150245 2569.0
40.061551580 3026.0
40.211952916 4097.0
40.362354251 6258.0
40.512755587 8038.0
40.663156922 7635.0
40.813558258 6478.0
40.963959593 5147.0
41.114360929 3873.0
41.264762264 2674.0
41.415163600 1901.0
41.565564935 1622.0
41.715966271 1239.0
41.866367606 1035.0
42.016768942 997.0
42.167170277 987.0
42.317571613 911.0
42.467972948 858.0
42.618374283 788.0
42.768775619 743.0
42.919176954 745.0
43.069578290 714.0
43.219979625 787.0
43.370380961 752.0
43.520782296 864.0
43.671183632 1222.0
43.821584967 1154.0
43.971986303 881.0
44.122387638 769.0
44.272788974 659.0
44.423190309 641.0
44.573591645 616.0
44.723992980 652.0
44.874394316 647.0
45.024795651 660.0
45.175196987 665.0
45.325598322 626.0
45.475999658 587.0
45.626400993 626.0
45.776802329 576.0
45.927203664 546.0
46.077605000 530.0
46.228006335 579.0
46.378407671 542.0
46.528809006 578.0
46.679210342 589.0
46.829611677 639.0
46.980013013 638.0
47.130414348 618.0
47.280815684 562.0
47.431217019 603.0
47.581618355 566.0
47.732019690 579.0
47.882421026 585.0
48.032822361 525.0
48.183223697 557.0
48.333625032 517.0
48.484026368 539.0
48.634427703 517.0
48.784829039 561.0
48.935230374 557.0
49.085631709 563.0
49.236033045 563.0
49.386434380 474.0
49.536835716 540.0
49.687237051 536.0
49.837638387 541.0
49.988039722 500.0
50.138441058 533.0
50.288842393 555.0
50.439243729 529.0
50.589645064 541.0
50.740046400 517.0
50.890447735 521.0
51.040849071 539.0
51.191250406 590.0
51.341651742 545.0
51.492053077 502.0
51.642454413 520.0
51.792855748 544.0
51.943257084 480.0
52.093658419 517.0
52.244059755 519.0
52.394461090 517.0
52.544862426 517.0
52.695263761 492.0
52.845665097 511.0
52.996066432 488.0
53.146467768 551.0
53.296869103 530.0
53.447270439 601.0
53.597671774 587.0
53.748073110 718.0
53.898474445 738.0
54.048875781 897.0
54.199277116 863.0
54.349678452 889.0
54.500079787 953.0
54.650481123 1091.0
54.800882458 1138.0
54.951283794 1203.0
55.101685129 1291.0
55.252086465 1261.0
55.402487800 1205.0
55.552889135 1127.0
55.703290471 988.0
55.853691806 1015.0
56.004093142 1135.0
56.154494477 1058.0
56.304895813 1049.0
56.455297148 1066.0
56.605698484 1173.0
56.756099819 1504.0
56.906501155 1755.0
57.056902490 1572.0
57.207303826 1155.0
57.357705161 1016.0
57.508106497 913.0
57.658507832 994.0
57.808909168 996.0
57.959310503 906.0
58.109711839 874.0
58.260113174 864.0
58.410514510 832.0
58.560915845 818.0
58.711317181 800.0
58.861718516 772.0
59.012119852 805.0
59.162521187 875.0
59.312922523 901.0
59.463323858 853.0
59.613725194 732.0
59.764126529 802.0
59.914527865 798.0
60.064929200 890.0
60.215330536 889.0
60.365731871 942.0
60.516133207 922.0
60.666534542 904.0
60.816935878 885.0
60.967337213 884.0
61.117738549 917.0
61.268139884 941.0
61.418541220 922.0
61.568942555 981.0
61.719343891 1066.0
61.869745226 1115.0
62.020146561 1120.0
62.170547897 1102.0
62.320949232 1070.0
62.471350568 1123.0
62.621751903 1177.0
62.772153239 1121.0
62.922554574 1239.0
63.072955910 1265.0
63.223357245 1362.0
63.373758581 1416.0
63.524159916 1421.0
63.674561252 1368.0
63.824962587 1196.0
63.975363923 1221.0
64.125765258 1184.0
64.276166594 1191.0
64.426567929 1190.0
64.576969265 1100.0
64.727370600 1132.0
64.877771936 1123.0
65.028173271 1168.0
65.178574607 1191.0
65.328975942 1271.0
65.479377278 1144.0
65.629778613 1147.0
65.780179949 1214.0
65.930581284 1028.0
66.080982620 1162.0
66.231383955 1058.0
66.381785291 1109.0
66.532186626 1287.0
66.682587962 1223.0
66.832989297 1356.0
66.983390633 1238.0
67.133791968 1287.0
67.284193304 1317.0
67.434594639 1283.0
67.584995975 1284.0
67.735397310 1297.0
67.885798646 1218.0
68.036199981 1309.0
68.186601317 1383.0
68.337002652 1461.0
68.487403987 1444.0
68.637805323 1389.0
68.788206658 1372.0
68.938607994 1412.0
69.089009329 1408.0
69.239410665 1448.0
69.389812000 1364.0
69.540213336 1537.0
69.690614671 1640.0
69.841016007 1821.0
69.991417342 1917.0
70.141818678 2070.0
70.292220013 2429.0
70.442621349 2798.0
70.593022684 3260.0
70.743424020 3476.0
70.893825355 3569.0
71.044226691 3515.0
71.194628026 3198.0
71.345029362 3039.0
71.495430697 2756.0
71.645832033 2396.0
71.796233368 2106.0
71.946634704 2014.0
72.097036039 1864.0
72.247437375 1705.0
72.397838710 1716.0
72.548240046 1590.0
72.698641381 1760.0
72.849042717 1774.0
72.999444052 1896.0
73.149845388 1921.0
73.300246723 1806.0
73.450648059 1901.0
73.601049394 1908.0
73.751450730 1793.0
73.901852065 1654.0
74.052253401 1537.0
74.202654736 1462.0
74.353056072 1487.0
74.503457407 1551.0
74.653858743 1684.0
74.804260078 1761.0
74.954661413 1823.0
75.105062749 2139.0
75.255464084 2405.0
75.405865420 2626.0
75.556266755 2575.0
75.706668091 2098.0
75.857069426 2007.0
76.007470762 1853.0
76.157872097 1827.0
76.308273433 1676.0
76.458674768 1601.0
76.609076104 1572.0
76.759477439 1653.0
76.909878775 1686.0
77.060280110 1609.0
77.210681446 1536.0
77.361082781 1554.0
77.511484117 1639.0
77.661885452 1683.0
77.812286788 1690.0
77.962688123 1687.0
78.113089459 1653.0
78.263490794 1611.0
78.413892130 1682.0
78.564293465 1562.0
78.714694801 1614.0
78.865096136 1445.0
79.015497472 1562.0
79.165898807 1609.0
79.316300143 1649.0
79.466701478 1723.0
79.617102814 1632.0
79.767504149 1905.0
79.917905485 2160.0
80.068306820 1973.0
80.218708156 2060.0
80.369109491 1919.0
80.519510827 2013.0
80.669912162 1996.0
80.820313498 1988.0
80.970714833 1792.0
81.121116169 1701.0
81.271517504 1686.0
81.421918839 1830.0
81.572320175 1908.0
81.722721510 1840.0
81.873122846 1939.0
82.023524181 1772.0
82.173925517 2062.0
82.324326852 2263.0
82.474728188 2338.0
82.625129523 2253.0
82.775530859 2197.0
82.925932194 1943.0
83.076333530 1857.0
83.226734865 1729.0
83.377136201 1711.0
83.527537536 1632.0
83.677938872 1571.0
83.828340207 1654.0
83.978741543 1657.0
84.129142878 1651.0
84.279544214 1647.0
84.429945549 1557.0
84.580346885 1690.0
84.730748220 1685.0
84.881149556 1558.0
85.031550891 1620.0
85.181952227 1574.0
85.332353562 1675.0
85.482754898 1714.0
85.633156233 1631.0
85.783557569 1701.0
85.933958904 1695.0
86.084360240 1675.0
86.234761575 1806.0
86.385162911 1739.0
86.535564246 1708.0
86.685965582 1726.0
86.836366917 1725.0
86.986768253 1981.0
87.137169588 1860.0
87.287570924 2027.0
87.437972259 2010.0
87.588373595 1987.0
87.738774930 2107.0
87.889176265 2104.0
88.039577601 2071.0
88.189978936 2037.0
88.340380272 1900.0
88.490781607 2080.0
88.641182943 1982.0
88.791584278 1863.0
88.941985614 1843.0
89.092386949 1731.0
89.242788285 1692.0
89.393189620 1841.0
89.543590956 1726.0
89.693992291 1712.0
89.844393627 1730.0
89.994794962 1623.0
90.145196298 1788.0
90.295597633 1724.0
90.445998969 1762.0
90.596400304 1743.0
90.746801640 1707.0
90.897202975 1789.0
91.047604311 1822.0
91.198005646 1707.0
91.348406982 1715.0
91.498808317 1772.0
91.649209653 1770.0
91.799610988 1790.0
91.950012324 1847.0
92.100413659 1846.0
92.250814995 1817.0
92.401216330 1872.0
92.551617666 1996.0
92.702019001 1814.0
92.852420337 1915.0
93.002821672 1935.0
93.153223008 1920.0
93.303624343 2004.0
93.454025679 2146.0
93.604427014 2043.0
93.754828350 2017.0
93.905229685 1950.0
94.055631021 2043.0
94.206032356 2104.0
94.356433691 2157.0
94.506835027 2192.0
94.657236362 2136.0
94.807637698 2196.0
94.958039033 2221.0
95.108440369 2136.0
95.258841704 2139.0
95.409243040 2214.0
95.559644375 2186.0
95.710045711 2411.0
95.860447046 2299.0
96.010848382 2445.0
96.161249717 2383.0
96.311651053 2354.0
96.462052388 2255.0
96.612453724 2179.0
96.762855059 2123.0
96.913256395 2265.0
97.063657730 2077.0
97.214059066 2074.0
97.364460401 2125.0
97.514861737 2013.0
97.665263072 2047.0
97.815664408 1993.0
97.966065743 2078.0
98.116467079 2117.0
98.266868414 2008.0
98.417269750 2029.0
98.567671085 1959.0
98.718072421 1935.0
98.868473756 2085.0
99.018875092 2104.0
99.169276427 2002.0
99.319677763 2067.0
99.470079098 2012.0
99.620480434 2077.0
99.770881769 2122.0
99.921283105 2112.0
100.071684440 2136.0
100.222085776 2017.0
100.372487111 2098.0
100.522888447 2187.0
100.673289782 2134.0
100.823691117 2048.0
100.974092453 2102.0
101.124493788 2158.0
101.274895124 2150.0
101.425296459 2098.0
101.575697795 2144.0
101.726099130 2055.0
101.876500466 2120.0
102.026901801 2166.0
102.177303137 2082.0
102.327704472 2153.0
102.478105808 2208.0
102.628507143 2143.0
102.778908479 2243.0
102.929309814 2215.0
103.079711150 2244.0
103.230112485 2239.0
103.380513821 2254.0
103.530915156 2168.0
103.681316492 2335.0
103.831717827 2324.0
103.982119163 2446.0
104.132520498 2286.0
104.282921834 2404.0
104.433323169 2419.0
104.583724505 2368.0
104.734125840 2497.0
104.884527176 2470.0
105.034928511 2476.0
105.185329847 2533.0
105.335731182 2576.0
105.486132518 2690.0
105.636533853 2852.0
105.786935189 2680.0
105.937336524 2755.0
106.087737860 2767.0
106.238139195 2552.0
106.388540531 2578.0
106.538941866 2515.0
106.689343202 2519.0
106.839744537 2580.0
106.990145873 2519.0
107.140547208 2595.0
107.290948543 2512.0
107.441349879 2525.0
107.591751214 2744.0
107.742152550 2619.0
107.892553885 2729.0
108.042955221 2640.0
108.193356556 2680.0
108.343757892 2723.0
108.494159227 2715.0
108.644560563 2577.0
108.794961898 2640.0
108.945363234 2596.0
109.095764569 2747.0
109.246165905 2796.0
109.396567240 2717.0
109.546968576 2701.0
109.697369911 2602.0
109.847771247 2643.0
109.998172582 2608.0
110.148573918 2643.0
110.298975253 2651.0
110.449376589 2610.0
110.599777924 2596.0
110.750179260 2718.0
110.900580595 2578.0
111.050981931 2730.0
111.201383266 2691.0
111.351784602 2573.0
111.502185937 2707.0
111.652587273 2746.0
111.802988608 2769.0
111.953389944 2652.0
112.103791279 2591.0
112.254192615 2729.0
112.404593950 2815.0
112.554995286 2738.0
112.705396621 2909.0
112.855797957 2914.0
113.006199292 3029.0
113.156600628 3118.0
113.307001963 3321.0
113.457403299 3666.0
113.607804634 3900.0
113.758205969 4128.0
113.908607305 3908.0
114.059008640 3820.0
114.209409976 3712.0
114.359811311 3469.0
114.510212647 3326.0
114.660613982 3447.0
114.811015318 3221.0
114.961416653 3214.0
115.111817989 3137.0
115.262219324 3056.0
115.412620660 3248.0
115.563021995 3024.0
115.713423331 3105.0
115.863824666 3017.0
116.014226002 2856.0
116.164627337 3073.0
116.315028673 3100.0
116.465430008 3074.0
116.615831344 3016.0
116.766232679 2927.0
116.916634015 3022.0
117.067035350 3000.0
117.217436686 2981.0
117.367838021 3065.0
117.518239357 3015.0
117.668640692 2963.0
117.819042028 3244.0
117.969443363 3050.0
118.119844699 3110.0
118.270246034 3051.0
118.420647370 3136.0
118.571048705 3058.0
118.721450041 3131.0
118.871851376 3053.0
119.022252712 3093.0
119.172654047 3078.0
119.323055383 3037.0
119.473456718 3243.0
119.623858054 3125.0
119.774259389 3117.0
119.924660725 3167.0
120.075062060 3102.0
